Untitled1.acq
Graph Created on: 2024-11-12 11:02:41.566
Recording on: 2024-11-12 11:03:42.061
0.5 msec/sample
1 channels
ppg - PPG, X, PPGED-R
Volts
milliSec	CH1	
	51309 samples	
0	-0.520325	
0.5	-0.515747	
1	-0.513306	
1.5	-0.511169	
2	-0.506287	
2.5	-0.500793	
3	-0.498962	
3.5	-0.4953	
4	-0.491333	
4.5	-0.48584	
5	-0.481873	
5.5	-0.478516	
6	-0.476379	
6.5	-0.471497	
7	-0.466614	
7.5	-0.462341	
8	-0.459595	
8.5	-0.456543	
9	-0.45166	
9.5	-0.446777	
10	-0.4422	
10.5	-0.440063	
11	-0.437012	
11.5	-0.431824	
12	-0.427551	
12.5	-0.422363	
13	-0.41748	
13.5	-0.413208	
14	-0.410156	
14.5	-0.40741	
15	-0.403137	
15.5	-0.39917	
16	-0.393982	
16.5	-0.388794	
17	-0.383606	
17.5	-0.379333	
18	-0.376892	
18.5	-0.373535	
19	-0.369263	
19.5	-0.364075	
20	-0.359802	
20.5	-0.354614	
21	-0.349426	
21.5	-0.344543	
22	-0.339661	
22.5	-0.334778	
23	-0.331726	
23.5	-0.329285	
24	-0.324707	
24.5	-0.319824	
25	-0.315247	
25.5	-0.309753	
26	-0.305481	
26.5	-0.300598	
27	-0.29541	
27.5	-0.290833	
28	-0.285339	
28.5	-0.280457	
29	-0.276489	
29.5	-0.271301	
30	-0.265808	
30.5	-0.263062	
31	-0.260315	
31.5	-0.256042	
32	-0.251465	
32.5	-0.247498	
33	-0.241394	
33.5	-0.236816	
34	-0.232849	
34.5	-0.227356	
35	-0.221863	
35.5	-0.21759	
36	-0.212097	
36.5	-0.207214	
37	-0.202637	
37.5	-0.197449	
38	-0.193176	
38.5	-0.187988	
39	-0.183105	
39.5	-0.178223	
40	-0.172729	
40.5	-0.167847	
41	-0.162964	
41.5	-0.158386	
42	-0.154114	
42.5	-0.148621	
43	-0.143433	
43.5	-0.139465	
44	-0.133667	
44.5	-0.129395	
45	-0.126038	
45.5	-0.123596	
46	-0.119019	
46.5	-0.114441	
47	-0.109558	
47.5	-0.10437	
48	-0.0991821	
48.5	-0.0949097	
49	-0.0900269	
49.5	-0.085144	
50	-0.0799561	
50.5	-0.0753784	
51	-0.0708008	
51.5	-0.0656128	
52	-0.06073	
52.5	-0.0558472	
53	-0.0506592	
53.5	-0.0460815	
54	-0.0411987	
54.5	-0.0372314	
55	-0.0311279	
55.5	-0.0265503	
56	-0.0216675	
56.5	-0.0170898	
57	-0.012207	
57.5	-0.00762939	
58	-0.00366211	
58.5	-0.00152588	
59	0.00274658	
59.5	0.00701904	
60	0.0128174	
60.5	0.0170898	
61	0.0219727	
61.5	0.0265503	
62	0.0323486	
62.5	0.0369263	
63	0.0418091	
63.5	0.0473022	
64	0.0515747	
64.5	0.0564575	
65	0.06073	
65.5	0.0628662	
66	0.065918	
66.5	0.071106	
67	0.0759888	
67.5	0.0802612	
68	0.085144	
68.5	0.0900269	
69	0.09552	
69.5	0.100098	
70	0.10498	
70.5	0.108948	
71	0.111389	
71.5	0.114746	
72	0.119019	
72.5	0.124207	
73	0.129395	
73.5	0.133972	
74	0.13916	
74.5	0.143433	
75	0.145569	
75.5	0.149231	
76	0.153198	
76.5	0.158997	
77	0.162964	
77.5	0.168152	
78	0.172119	
78.5	0.174561	
79	0.178833	
79.5	0.1828	
80	0.187988	
80.5	0.192566	
81	0.197754	
81.5	0.201111	
82	0.203552	
82.5	0.20752	
83	0.212402	
83.5	0.21759	
84	0.221252	
84.5	0.223389	
85	0.227356	
85.5	0.231934	
86	0.236511	
86.5	0.241699	
87	0.24292	
87.5	0.245972	
88	0.25177	
88.5	0.256042	
89	0.26001	
89.5	0.263062	
90	0.265808	
90.5	0.270996	
91	0.275879	
91.5	0.280457	
92	0.281677	
92.5	0.285645	
93	0.290833	
93.5	0.294495	
94	0.296936	
94.5	0.299988	
95	0.304871	
95.5	0.309448	
96	0.31189	
96.5	0.314636	
97	0.320129	
97.5	0.323792	
98	0.325928	
98.5	0.329895	
99	0.333862	
99.5	0.335999	
100	0.339966	
100.5	0.343628	
101	0.349121	
101.5	0.350037	
102	0.354614	
102.5	0.358887	
103	0.359802	
103.5	0.36438	
104	0.368347	
104.5	0.372925	
105	0.374756	
105.5	0.378723	
106	0.383301	
106.5	0.384827	
107	0.388794	
107.5	0.391846	
108	0.394897	
108.5	0.397949	
109	0.401917	
109.5	0.404358	
110	0.40802	
110.5	0.412598	
111	0.415344	
111.5	0.417786	
112	0.422363	
112.5	0.423889	
113	0.427856	
113.5	0.431824	
114	0.43335	
114.5	0.436707	
115	0.441589	
115.5	0.44342	
116	0.447083	
116.5	0.448303	
117	0.45166	
117.5	0.456543	
118	0.458679	
118.5	0.462036	
119	0.463867	
119.5	0.466919	
120	0.470886	
120.5	0.473633	
121	0.476074	
121.5	0.478516	
122	0.481262	
122.5	0.485535	
123	0.488281	
123.5	0.491333	
124	0.492554	
124.5	0.496216	
125	0.500793	
125.5	0.50293	
126	0.505981	
126.5	0.507813	
127	0.510864	
127.5	0.512695	
128	0.516052	
128.5	0.52063	
129	0.522156	
129.5	0.525818	
130	0.527039	
130.5	0.530701	
131	0.532837	
131.5	0.535278	
132	0.53772	
132.5	0.540161	
133	0.541992	
133.5	0.545044	
134	0.549622	
134.5	0.551453	
135	0.554504	
135.5	0.556335	
136	0.559692	
136.5	0.561523	
137	0.564575	
137.5	0.565491	
138	0.568848	
138.5	0.570984	
139	0.574036	
139.5	0.575562	
140	0.578613	
140.5	0.580444	
141	0.584106	
141.5	0.585632	
142	0.588989	
142.5	0.59082	
143	0.591431	
143.5	0.593262	
144	0.596313	
144.5	0.598145	
145	0.600586	
145.5	0.603333	
146	0.606079	
146.5	0.608215	
147	0.610657	
147.5	0.613708	
148	0.615234	
148.5	0.61554	
149	0.617981	
149.5	0.621033	
150	0.622559	
150.5	0.625305	
151	0.628052	
151.5	0.630188	
152	0.632935	
152.5	0.635071	
153	0.635376	
153.5	0.637512	
154	0.639954	
154.5	0.6427	
155	0.644531	
155.5	0.648193	
156	0.649719	
156.5	0.652161	
157	0.654907	
157.5	0.655212	
158	0.657349	
158.5	0.65918	
159	0.6604	
159.5	0.662231	
160	0.664063	
160.5	0.667419	
161	0.66925	
161.5	0.670166	
162	0.672302	
162.5	0.674438	
163	0.674744	
163.5	0.676575	
164	0.679016	
164.5	0.679932	
165	0.681458	
165.5	0.683899	
166	0.68512	
166.5	0.686646	
167	0.688782	
167.5	0.689392	
168	0.691528	
168.5	0.69397	
169	0.69458	
169.5	0.694275	
170	0.696411	
170.5	0.698547	
171	0.699463	
171.5	0.701294	
172	0.70343	
172.5	0.704346	
173	0.704041	
173.5	0.706177	
174	0.708618	
174.5	0.709534	
175	0.709534	
175.5	0.710754	
176	0.713196	
176.5	0.714722	
177	0.714417	
177.5	0.715637	
178	0.718994	
178.5	0.719299	
179	0.718994	
179.5	0.720825	
180	0.723267	
180.5	0.724182	
181	0.723877	
181.5	0.724487	
182	0.725708	
182.5	0.728455	
183	0.729065	
183.5	0.729675	
184	0.729065	
184.5	0.730896	
185	0.733032	
185.5	0.734253	
186	0.734558	
186.5	0.734558	
187	0.733643	
187.5	0.735779	
188	0.73822	
188.5	0.739136	
189	0.739441	
189.5	0.738525	
190	0.739136	
190.5	0.740967	
191	0.742798	
191.5	0.744019	
192	0.744019	
192.5	0.744629	
193	0.744019	
193.5	0.743713	
194	0.743103	
194.5	0.745239	
195	0.747681	
195.5	0.748291	
196	0.748901	
196.5	0.748596	
197	0.749512	
197.5	0.748901	
198	0.748596	
198.5	0.749512	
199	0.749207	
199.5	0.748901	
200	0.750122	
200.5	0.753174	
201	0.753479	
201.5	0.754089	
202	0.754395	
202.5	0.753479	
203	0.754089	
203.5	0.753479	
204	0.753174	
204.5	0.754089	
205	0.754089	
205.5	0.753479	
206	0.753479	
206.5	0.754395	
207	0.754089	
207.5	0.753479	
208	0.753479	
208.5	0.754089	
209	0.754089	
209.5	0.753479	
210	0.753174	
210.5	0.753784	
211	0.753784	
211.5	0.754089	
212	0.753174	
212.5	0.754089	
213	0.753784	
213.5	0.753784	
214	0.753479	
214.5	0.753479	
215	0.753479	
215.5	0.753784	
216	0.754089	
216.5	0.754089	
217	0.754089	
217.5	0.753784	
218	0.753784	
218.5	0.753784	
219	0.753784	
219.5	0.753479	
220	0.752869	
220.5	0.753784	
221	0.753479	
221.5	0.752869	
222	0.751038	
222.5	0.749207	
223	0.748596	
223.5	0.748901	
224	0.748901	
224.5	0.749207	
225	0.748901	
225.5	0.748291	
226	0.748901	
226.5	0.749207	
227	0.748901	
227.5	0.748901	
228	0.748291	
228.5	0.745544	
229	0.744934	
229.5	0.743713	
230	0.744324	
230.5	0.744934	
231	0.744324	
231.5	0.744324	
232	0.744019	
232.5	0.743713	
233	0.740051	
233.5	0.739746	
234	0.739136	
234.5	0.739136	
235	0.738831	
235.5	0.739136	
236	0.739441	
236.5	0.738525	
237	0.736084	
237.5	0.734558	
238	0.733337	
238.5	0.733643	
239	0.733948	
239.5	0.733948	
240	0.733337	
240.5	0.730591	
241	0.72998	
241.5	0.72937	
242	0.72937	
242.5	0.72937	
243	0.72937	
243.5	0.729675	
244	0.726318	
244.5	0.724792	
245	0.724487	
245.5	0.723877	
246	0.724487	
246.5	0.724182	
247	0.721741	
247.5	0.719604	
248	0.719299	
248.5	0.718994	
249	0.719299	
249.5	0.719299	
250	0.715942	
250.5	0.715027	
251	0.714111	
251.5	0.715027	
252	0.714417	
252.5	0.71167	
253	0.710144	
253.5	0.708923	
254	0.709534	
254.5	0.709229	
255	0.707092	
255.5	0.705566	
256	0.704956	
256.5	0.704041	
257	0.704346	
257.5	0.704346	
258	0.701904	
258.5	0.699768	
259	0.699768	
259.5	0.699158	
260	0.699463	
260.5	0.696411	
261	0.696106	
261.5	0.69458	
262	0.694275	
262.5	0.692139	
263	0.689697	
263.5	0.689697	
264	0.689392	
264.5	0.689392	
265	0.687256	
265.5	0.684814	
266	0.684814	
266.5	0.684814	
267	0.682678	
267.5	0.680542	
268	0.680237	
268.5	0.679932	
269	0.679016	
269.5	0.677185	
270	0.675354	
270.5	0.675354	
271	0.675049	
271.5	0.672302	
272	0.670776	
272.5	0.670471	
273	0.670471	
273.5	0.667419	
274	0.664978	
274.5	0.665283	
275	0.665283	
275.5	0.665283	
276	0.662537	
276.5	0.661621	
277	0.6604	
277.5	0.6604	
278	0.657959	
278.5	0.656128	
279	0.655212	
279.5	0.655212	
280	0.652771	
280.5	0.651245	
281	0.65033	
281.5	0.649719	
282	0.648193	
282.5	0.646667	
283	0.645752	
283.5	0.643311	
284	0.641174	
284.5	0.640564	
285	0.639954	
285.5	0.638123	
286	0.635986	
286.5	0.635071	
287	0.635071	
287.5	0.633545	
288	0.631104	
288.5	0.630798	
289	0.630493	
289.5	0.629272	
290	0.626526	
290.5	0.62561	
291	0.623474	
291.5	0.621338	
292	0.620728	
292.5	0.620117	
293	0.618896	
293.5	0.617371	
294	0.616455	
294.5	0.613403	
295	0.611877	
295.5	0.610962	
296	0.610962	
296.5	0.609131	
297	0.606689	
297.5	0.606384	
298	0.604553	
298.5	0.602112	
299	0.601501	
299.5	0.601196	
300	0.59967	
300.5	0.597534	
301	0.596619	
301.5	0.594482	
302	0.592957	
302.5	0.591736	
303	0.5896	
303.5	0.587463	
304	0.587158	
304.5	0.586853	
305	0.584717	
305.5	0.582581	
306	0.581665	
306.5	0.579834	
307	0.577393	
307.5	0.576782	
308	0.575256	
308.5	0.573425	
309	0.571289	
309.5	0.570068	
310	0.567932	
310.5	0.567017	
311	0.56488	
311.5	0.562744	
312	0.562134	
312.5	0.560913	
313	0.558167	
313.5	0.556946	
314	0.557556	
314.5	0.55542	
315	0.552979	
315.5	0.552979	
316	0.550842	
316.5	0.548706	
317	0.547791	
317.5	0.54657	
318	0.543213	
318.5	0.542297	
319	0.540771	
319.5	0.538635	
320	0.538635	
320.5	0.537109	
321	0.534058	
321.5	0.531921	
322	0.532227	
322.5	0.529175	
323	0.527344	
323.5	0.527039	
324	0.524292	
324.5	0.523682	
325	0.521545	
325.5	0.518799	
326	0.517883	
326.5	0.516663	
327	0.514221	
327.5	0.513916	
328	0.512085	
328.5	0.509338	
329	0.508423	
329.5	0.506897	
330	0.504761	
330.5	0.502319	
331	0.499573	
331.5	0.498352	
332	0.497437	
332.5	0.49408	
333	0.493469	
333.5	0.492249	
334	0.489502	
334.5	0.488892	
335	0.487061	
335.5	0.484619	
336	0.484619	
336.5	0.482178	
337	0.480042	
337.5	0.47821	
338	0.477905	
338.5	0.474854	
339	0.474548	
339.5	0.472412	
340	0.469666	
340.5	0.46875	
341	0.464783	
341.5	0.464172	
342	0.463562	
342.5	0.46051	
343	0.459595	
343.5	0.457458	
344	0.455627	
344.5	0.453491	
345	0.453186	
345.5	0.450439	
346	0.448608	
346.5	0.445557	
347	0.444641	
347.5	0.44342	
348	0.440979	
348.5	0.439148	
349	0.438843	
349.5	0.435791	
350	0.43457	
350.5	0.433655	
351	0.430908	
351.5	0.429077	
352	0.426025	
352.5	0.424805	
353	0.423889	
353.5	0.421448	
354	0.420227	
354.5	0.419312	
355	0.415344	
355.5	0.415344	
356	0.411377	
356.5	0.409241	
357	0.408936	
357.5	0.406189	
358	0.405579	
358.5	0.404053	
359	0.401611	
359.5	0.399475	
360	0.397034	
360.5	0.394592	
361	0.394287	
361.5	0.392151	
362	0.390015	
362.5	0.387268	
363	0.386047	
363.5	0.384521	
364	0.382385	
364.5	0.380859	
365	0.379944	
365.5	0.376892	
366	0.375366	
366.5	0.37262	
367	0.370789	
367.5	0.370483	
368	0.367126	
368.5	0.365906	
369	0.362549	
369.5	0.360718	
370	0.361328	
370.5	0.357666	
371	0.35553	
371.5	0.353088	
372	0.351257	
372.5	0.350647	
373	0.347595	
373.5	0.346069	
374	0.343323	
374.5	0.341492	
375	0.340881	
375.5	0.33844	
376	0.336914	
376.5	0.332642	
377	0.331421	
377.5	0.331116	
378	0.328064	
378.5	0.326233	
379	0.322571	
379.5	0.321045	
380	0.321045	
380.5	0.318604	
381	0.317078	
381.5	0.313416	
382	0.311279	
382.5	0.308533	
383	0.306396	
383.5	0.306091	
384	0.302734	
384.5	0.302734	
385	0.299072	
385.5	0.297852	
386	0.296631	
386.5	0.293579	
387	0.292053	
387.5	0.288696	
388	0.28717	
388.5	0.284119	
389	0.281982	
389.5	0.281677	
390	0.279541	
390.5	0.2771	
391	0.274658	
391.5	0.272827	
392	0.270386	
392.5	0.267639	
393	0.267334	
393.5	0.263672	
394	0.262756	
394.5	0.26001	
395	0.257568	
395.5	0.256653	
396	0.254211	
396.5	0.253601	
397	0.249939	
397.5	0.248108	
398	0.245056	
398.5	0.243225	
399	0.240784	
399.5	0.237427	
400	0.237427	
400.5	0.235291	
401	0.233459	
401.5	0.230408	
402	0.228271	
402.5	0.22583	
403	0.223999	
403.5	0.223083	
404	0.220337	
404.5	0.218506	
405	0.21637	
405.5	0.214233	
406	0.211182	
406.5	0.209045	
407	0.20813	
407.5	0.205994	
408	0.203552	
408.5	0.201111	
409	0.19928	
409.5	0.196228	
410	0.193787	
410.5	0.19165	
411	0.188904	
411.5	0.188904	
412	0.186157	
412.5	0.183411	
413	0.181885	
413.5	0.179138	
414	0.177307	
414.5	0.174866	
415	0.173645	
415.5	0.171814	
416	0.169678	
416.5	0.166931	
417	0.164795	
417.5	0.161743	
418	0.159912	
418.5	0.157166	
419	0.155334	
419.5	0.155029	
420	0.151978	
420.5	0.150146	
421	0.147095	
421.5	0.144958	
422	0.143127	
422.5	0.140381	
423	0.137634	
423.5	0.135193	
424	0.134888	
424.5	0.132751	
425	0.13031	
425.5	0.127563	
426	0.125427	
426.5	0.122986	
427	0.12085	
427.5	0.119934	
428	0.118408	
428.5	0.115662	
429	0.113831	
429.5	0.110779	
430	0.108337	
430.5	0.106201	
431	0.104065	
431.5	0.101318	
432	0.101013	
432.5	0.098877	
433	0.0961304	
433.5	0.0942993	
434	0.0906372	
434.5	0.0888062	
435	0.0860596	
435.5	0.0842285	
436	0.0811768	
436.5	0.0802612	
437	0.0799561	
437.5	0.0775146	
438	0.0750732	
438.5	0.0723267	
439	0.0698853	
439.5	0.0671387	
440	0.0668335	
440.5	0.0650024	
441	0.0628662	
441.5	0.06073	
442	0.0579834	
442.5	0.0558472	
443	0.0527954	
443.5	0.0506592	
444	0.0473022	
444.5	0.0469971	
445	0.0457764	
445.5	0.043335	
446	0.0402832	
446.5	0.038147	
447	0.0360107	
447.5	0.032959	
448	0.0317383	
448.5	0.0280762	
449	0.0271606	
449.5	0.0259399	
450	0.0231934	
450.5	0.0210571	
451	0.0183105	
451.5	0.0164795	
452	0.0137329	
452.5	0.0109863	
453	0.00823975	
453.5	0.00762939	
454	0.00640869	
454.5	0.00427246	
455	0.00244141	
455.5	-0.000915527	
456	-0.00305176	
456.5	-0.00549316	
457	-0.00793457	
457.5	-0.0109863	
458	-0.0131226	
458.5	-0.015564	
459	-0.017395	
459.5	-0.0180054	
460	-0.0204468	
460.5	-0.0228882	
461	-0.0250244	
461.5	-0.0271606	
462	-0.0308228	
462.5	-0.0320435	
463	-0.0350952	
463.5	-0.0366211	
464	-0.0375366	
464.5	-0.0405884	
465	-0.0421143	
465.5	-0.0454712	
466	-0.0463867	
466.5	-0.0497437	
467	-0.0515747	
467.5	-0.0549316	
468	-0.0561523	
468.5	-0.0567627	
469	-0.0588989	
469.5	-0.0616455	
470	-0.0650024	
470.5	-0.0665283	
471	-0.0695801	
471.5	-0.071106	
472	-0.0741577	
472.5	-0.0765991	
473	-0.0765991	
473.5	-0.0793457	
474	-0.0814819	
474.5	-0.0848389	
475	-0.0854492	
475.5	-0.0894165	
476	-0.0906372	
476.5	-0.0946045	
477	-0.0949097	
477.5	-0.09552	
478	-0.098877	
478.5	-0.100403	
479	-0.103455	
479.5	-0.105591	
480	-0.108337	
480.5	-0.109863	
481	-0.110474	
481.5	-0.11322	
482	-0.114746	
482.5	-0.118713	
483	-0.120239	
483.5	-0.122986	
484	-0.124512	
484.5	-0.124512	
485	-0.128479	
485.5	-0.129395	
486	-0.133057	
486.5	-0.134583	
487	-0.137329	
487.5	-0.13916	
488	-0.139465	
488.5	-0.143127	
489	-0.144043	
489.5	-0.1474	
490	-0.149536	
490.5	-0.152588	
491	-0.154419	
491.5	-0.154724	
492	-0.157776	
492.5	-0.158386	
493	-0.162354	
493.5	-0.163269	
494	-0.164185	
494.5	-0.167542	
495	-0.168762	
495.5	-0.172119	
496	-0.173645	
496.5	-0.173645	
497	-0.177002	
497.5	-0.178833	
498	-0.18158	
498.5	-0.183105	
499	-0.183411	
499.5	-0.187378	
500	-0.187988	
500.5	-0.191956	
501	-0.193481	
501.5	-0.192871	
502	-0.196228	
502.5	-0.198364	
503	-0.201416	
503.5	-0.203247	
504	-0.203552	
504.5	-0.205994	
505	-0.207825	
505.5	-0.211182	
506	-0.212402	
506.5	-0.213623	
507	-0.216064	
507.5	-0.21759	
508	-0.217896	
508.5	-0.220642	
509	-0.222778	
509.5	-0.226135	
510	-0.227661	
510.5	-0.228271	
511	-0.231018	
511.5	-0.233154	
512	-0.235596	
512.5	-0.237427	
513	-0.238037	
513.5	-0.240173	
514	-0.24292	
514.5	-0.242615	
515	-0.245361	
515.5	-0.247803	
516	-0.250244	
516.5	-0.252075	
517	-0.252686	
517.5	-0.255127	
518	-0.257263	
518.5	-0.257874	
519	-0.26001	
519.5	-0.261536	
520	-0.261841	
520.5	-0.264587	
521	-0.266724	
521.5	-0.269775	
522	-0.271606	
522.5	-0.271912	
523	-0.274963	
523.5	-0.276794	
524	-0.277405	
524.5	-0.279846	
525	-0.281982	
525.5	-0.282593	
526	-0.284729	
526.5	-0.28656	
527	-0.286865	
527.5	-0.289917	
528	-0.292053	
528.5	-0.292664	
529	-0.294189	
529.5	-0.296631	
530	-0.297241	
530.5	-0.299377	
531	-0.301514	
531.5	-0.303955	
532	-0.305481	
532.5	-0.307007	
533	-0.308838	
533.5	-0.311584	
534	-0.31189	
534.5	-0.314331	
535	-0.315552	
535.5	-0.316772	
536	-0.318604	
536.5	-0.320435	
537	-0.321655	
537.5	-0.323486	
538	-0.325317	
538.5	-0.326843	
539	-0.328674	
539.5	-0.330811	
540	-0.331116	
540.5	-0.333557	
541	-0.335388	
541.5	-0.336609	
542	-0.338135	
542.5	-0.340271	
543	-0.341187	
543.5	-0.343018	
544	-0.345764	
544.5	-0.346375	
545	-0.3479	
545.5	-0.350342	
546	-0.350647	
546.5	-0.352783	
547	-0.354919	
547.5	-0.355835	
548	-0.35553	
548.5	-0.357361	
549	-0.360413	
549.5	-0.359802	
550	-0.363159	
550.5	-0.364075	
551	-0.365906	
551.5	-0.368042	
552	-0.369568	
552.5	-0.370789	
553	-0.372925	
553.5	-0.374451	
554	-0.375366	
554.5	-0.377197	
555	-0.379944	
555.5	-0.380249	
556	-0.382996	
556.5	-0.384216	
557	-0.385132	
557.5	-0.386658	
558	-0.386658	
558.5	-0.388489	
559	-0.390015	
559.5	-0.391846	
560	-0.394287	
560.5	-0.394897	
561	-0.396729	
561.5	-0.39856	
562	-0.399475	
562.5	-0.399475	
563	-0.401306	
563.5	-0.404358	
564	-0.404968	
564.5	-0.405884	
565	-0.409241	
565.5	-0.410156	
566	-0.411377	
566.5	-0.413818	
567	-0.414429	
567.5	-0.415344	
568	-0.41626	
568.5	-0.419006	
569	-0.419922	
569.5	-0.420532	
570	-0.423584	
570.5	-0.424194	
571	-0.4245	
571.5	-0.424805	
572	-0.428772	
572.5	-0.428772	
573	-0.430603	
573.5	-0.43335	
574	-0.434265	
574.5	-0.43457	
575	-0.434875	
575.5	-0.438232	
576	-0.439758	
576.5	-0.439453	
577	-0.440674	
577.5	-0.443115	
578	-0.444031	
578.5	-0.445251	
579	-0.447388	
579.5	-0.448914	
580	-0.449219	
580.5	-0.450439	
581	-0.453186	
581.5	-0.453491	
582	-0.453796	
582.5	-0.455017	
583	-0.457458	
583.5	-0.458984	
584	-0.458984	
584.5	-0.459595	
585	-0.462341	
585.5	-0.463562	
586	-0.464172	
586.5	-0.464783	
587	-0.467224	
587.5	-0.46814	
588	-0.469055	
588.5	-0.469666	
589	-0.471802	
589.5	-0.473022	
590	-0.473328	
590.5	-0.474243	
591	-0.477295	
591.5	-0.47821	
592	-0.479126	
592.5	-0.479431	
593	-0.481567	
593.5	-0.483398	
594	-0.483398	
594.5	-0.484009	
595	-0.487061	
595.5	-0.487671	
596	-0.488281	
596.5	-0.489197	
597	-0.491943	
597.5	-0.492859	
598	-0.493469	
598.5	-0.49408	
599	-0.497437	
599.5	-0.498352	
600	-0.498657	
600.5	-0.499268	
601	-0.501404	
601.5	-0.50354	
602	-0.50293	
602.5	-0.503845	
603	-0.506287	
603.5	-0.508118	
604	-0.507813	
604.5	-0.507813	
605	-0.512085	
605.5	-0.51239	
606	-0.513	
606.5	-0.512695	
607	-0.513	
607.5	-0.516663	
608	-0.517578	
608.5	-0.518494	
609	-0.518494	
609.5	-0.52063	
610	-0.522461	
610.5	-0.523071	
611	-0.523376	
611.5	-0.525513	
612	-0.527344	
612.5	-0.527954	
613	-0.528259	
613.5	-0.531311	
614	-0.532227	
614.5	-0.533142	
615	-0.531921	
615.5	-0.535889	
616	-0.537109	
616.5	-0.537415	
617	-0.537109	
617.5	-0.53772	
618	-0.540466	
618.5	-0.541992	
619	-0.542603	
619.5	-0.542603	
620	-0.545654	
620.5	-0.546875	
621	-0.546875	
621.5	-0.547791	
622	-0.549927	
622.5	-0.552063	
623	-0.553589	
623.5	-0.552979	
624	-0.55542	
624.5	-0.556641	
625	-0.557556	
625.5	-0.556946	
626	-0.557556	
626.5	-0.560608	
627	-0.562439	
627.5	-0.562439	
628	-0.562744	
628.5	-0.565186	
629	-0.566406	
629.5	-0.567017	
630	-0.567322	
630.5	-0.569763	
631	-0.571289	
631.5	-0.57251	
632	-0.571899	
632.5	-0.574341	
633	-0.576477	
633.5	-0.577393	
634	-0.577698	
634.5	-0.577087	
635	-0.579834	
635.5	-0.581055	
636	-0.582581	
636.5	-0.582275	
637	-0.585022	
637.5	-0.585938	
638	-0.586853	
638.5	-0.587463	
639	-0.587158	
639.5	-0.589294	
640	-0.591431	
640.5	-0.592651	
641	-0.591431	
641.5	-0.594788	
642	-0.596008	
642.5	-0.596924	
643	-0.597229	
643.5	-0.59906	
644	-0.601501	
644.5	-0.601807	
645	-0.602112	
645.5	-0.602417	
646	-0.604248	
646.5	-0.605774	
647	-0.606995	
647.5	-0.606689	
648	-0.609741	
648.5	-0.611267	
649	-0.611572	
649.5	-0.612488	
650	-0.611572	
650.5	-0.613708	
651	-0.616455	
651.5	-0.617065	
652	-0.616455	
652.5	-0.616455	
653	-0.618591	
653.5	-0.620728	
654	-0.621033	
654.5	-0.621948	
655	-0.623779	
655.5	-0.62561	
656	-0.626526	
656.5	-0.626526	
657	-0.626221	
657.5	-0.628052	
658	-0.631104	
658.5	-0.630798	
659	-0.631409	
659.5	-0.630493	
660	-0.63324	
660.5	-0.635376	
661	-0.635681	
661.5	-0.635986	
662	-0.636597	
662.5	-0.637817	
663	-0.639648	
663.5	-0.640869	
664	-0.640564	
664.5	-0.643311	
665	-0.645142	
665.5	-0.645752	
666	-0.645142	
666.5	-0.646057	
667	-0.648193	
667.5	-0.650024	
668	-0.650635	
668.5	-0.650635	
669	-0.65094	
669.5	-0.653076	
670	-0.654907	
670.5	-0.656128	
671	-0.655518	
671.5	-0.655518	
672	-0.657349	
672.5	-0.660706	
673	-0.661011	
673.5	-0.661316	
674	-0.6604	
674.5	-0.662231	
675	-0.664978	
675.5	-0.665283	
676	-0.665894	
676.5	-0.665894	
677	-0.667114	
677.5	-0.669556	
678	-0.670776	
678.5	-0.670471	
679	-0.670471	
679.5	-0.671692	
680	-0.674744	
680.5	-0.675049	
681	-0.675049	
681.5	-0.675964	
682	-0.677185	
682.5	-0.679626	
683	-0.680847	
683.5	-0.680542	
684	-0.680237	
684.5	-0.682068	
685	-0.683899	
685.5	-0.684814	
686	-0.68573	
686.5	-0.685425	
687	-0.686646	
687.5	-0.689392	
688	-0.690308	
688.5	-0.690308	
689	-0.690613	
689.5	-0.690308	
690	-0.690918	
690.5	-0.693665	
691	-0.69519	
691.5	-0.695496	
692	-0.695801	
692.5	-0.696411	
693	-0.698853	
693.5	-0.699768	
694	-0.699768	
694.5	-0.699768	
695	-0.699463	
695.5	-0.701294	
696	-0.70282	
696.5	-0.704651	
697	-0.704651	
697.5	-0.704346	
698	-0.706787	
698.5	-0.708313	
699	-0.710144	
699.5	-0.709839	
700	-0.709839	
700.5	-0.710144	
701	-0.71106	
701.5	-0.713196	
702	-0.713501	
702.5	-0.714722	
703	-0.715027	
703.5	-0.714722	
704	-0.715942	
704.5	-0.718689	
705	-0.719604	
705.5	-0.719299	
706	-0.719604	
706.5	-0.719604	
707	-0.720825	
707.5	-0.722961	
708	-0.723877	
708.5	-0.724182	
709	-0.724487	
709.5	-0.724182	
710	-0.724792	
710.5	-0.728455	
711	-0.72937	
711.5	-0.729065	
712	-0.729065	
712.5	-0.72937	
713	-0.729065	
713.5	-0.730286	
714	-0.732422	
714.5	-0.733643	
715	-0.734558	
715.5	-0.734558	
716	-0.734253	
716.5	-0.733948	
717	-0.734863	
717.5	-0.73761	
718	-0.738831	
718.5	-0.739746	
719	-0.738831	
719.5	-0.739441	
720	-0.739441	
720.5	-0.740051	
721	-0.743408	
721.5	-0.743408	
722	-0.744324	
722.5	-0.744324	
723	-0.744324	
723.5	-0.744019	
724	-0.743713	
724.5	-0.743713	
725	-0.744324	
725.5	-0.747375	
726	-0.747986	
726.5	-0.748901	
727	-0.748596	
727.5	-0.748901	
728	-0.749512	
728.5	-0.748596	
729	-0.747986	
729.5	-0.749512	
730	-0.749207	
730.5	-0.748901	
731	-0.752258	
731.5	-0.753479	
732	-0.754089	
732.5	-0.754089	
733	-0.754089	
733.5	-0.754089	
734	-0.754395	
734.5	-0.754395	
735	-0.753784	
735.5	-0.754089	
736	-0.754089	
736.5	-0.754395	
737	-0.754089	
737.5	-0.754395	
738	-0.754395	
738.5	-0.754089	
739	-0.754089	
739.5	-0.753784	
740	-0.753784	
740.5	-0.7547	
741	-0.754089	
741.5	-0.753784	
742	-0.753784	
742.5	-0.754089	
743	-0.753479	
743.5	-0.754089	
744	-0.753784	
744.5	-0.753784	
745	-0.754089	
745.5	-0.753479	
746	-0.754089	
746.5	-0.753174	
747	-0.754395	
747.5	-0.754089	
748	-0.753479	
748.5	-0.754089	
749	-0.753784	
749.5	-0.754089	
750	-0.754395	
750.5	-0.7547	
751	-0.755005	
751.5	-0.754089	
752	-0.751648	
752.5	-0.748901	
753	-0.749207	
753.5	-0.748901	
754	-0.748291	
754.5	-0.748901	
755	-0.748596	
755.5	-0.749207	
756	-0.746155	
756.5	-0.744324	
757	-0.744324	
757.5	-0.743713	
758	-0.743408	
758.5	-0.744324	
759	-0.744019	
759.5	-0.741577	
760	-0.740051	
760.5	-0.739136	
761	-0.738525	
761.5	-0.739746	
762	-0.736694	
762.5	-0.734863	
763	-0.733948	
763.5	-0.733948	
764	-0.734253	
764.5	-0.731201	
765	-0.72998	
765.5	-0.730286	
766	-0.72937	
766.5	-0.727234	
767	-0.725403	
767.5	-0.724792	
768	-0.722046	
768.5	-0.71991	
769	-0.719299	
769.5	-0.719604	
770	-0.716553	
770.5	-0.714722	
771	-0.715027	
771.5	-0.712585	
772	-0.709534	
772.5	-0.710144	
773	-0.707397	
773.5	-0.705566	
774	-0.704346	
774.5	-0.701599	
775	-0.700989	
775.5	-0.700073	
776	-0.698242	
776.5	-0.695496	
777	-0.692139	
777.5	-0.690613	
778	-0.690613	
778.5	-0.687256	
779	-0.686035	
779.5	-0.682983	
780	-0.681458	
780.5	-0.677795	
781	-0.67627	
781.5	-0.675354	
782	-0.672913	
782.5	-0.671082	
783	-0.668335	
783.5	-0.666504	
784	-0.663452	
784.5	-0.661316	
785	-0.658569	
785.5	-0.656738	
786	-0.654297	
786.5	-0.65094	
787	-0.648499	
787.5	-0.646973	
788	-0.644531	
788.5	-0.641785	
789	-0.638733	
789.5	-0.635071	
790	-0.632324	
790.5	-0.629883	
791	-0.627136	
791.5	-0.624084	
792	-0.621643	
792.5	-0.619812	
793	-0.61554	
793.5	-0.612488	
794	-0.609741	
794.5	-0.6073	
795	-0.604553	
795.5	-0.600891	
796	-0.598755	
796.5	-0.594788	
797	-0.59082	
797.5	-0.587463	
798	-0.585022	
798.5	-0.58197	
799	-0.578003	
799.5	-0.575256	
800	-0.570984	
800.5	-0.568542	
801	-0.566101	
801.5	-0.561523	
802	-0.556946	
802.5	-0.553894	
803	-0.550537	
803.5	-0.546875	
804	-0.543213	
804.5	-0.541382	
805	-0.536804	
805.5	-0.532227	
806	-0.528259	
806.5	-0.526123	
807	-0.522766	
807.5	-0.517273	
808	-0.512695	
808.5	-0.509033	
809	-0.506897	
809.5	-0.502625	
810	-0.497742	
810.5	-0.493164	
811	-0.489197	
811.5	-0.487976	
812	-0.483093	
812.5	-0.47821	
813	-0.473633	
813.5	-0.469971	
814	-0.467529	
814.5	-0.463257	
815	-0.458679	
815.5	-0.454102	
816	-0.448914	
816.5	-0.444336	
817	-0.440369	
817.5	-0.437317	
818	-0.434875	
818.5	-0.429688	
819	-0.424194	
819.5	-0.419922	
820	-0.414429	
820.5	-0.409851	
821	-0.406799	
821.5	-0.403748	
822	-0.399475	
822.5	-0.394287	
823	-0.39032	
823.5	-0.385742	
824	-0.380859	
824.5	-0.375671	
825	-0.371094	
825.5	-0.366516	
826	-0.361023	
826.5	-0.357056	
827	-0.354919	
827.5	-0.351563	
828	-0.34668	
828.5	-0.342102	
829	-0.337524	
829.5	-0.331421	
830	-0.326843	
830.5	-0.321655	
831	-0.317383	
831.5	-0.3125	
832	-0.307922	
832.5	-0.301514	
833	-0.297546	
833.5	-0.292969	
834	-0.287781	
834.5	-0.283203	
835	-0.27832	
835.5	-0.273438	
836	-0.267944	
836.5	-0.263977	
837	-0.262451	
837.5	-0.257874	
838	-0.253601	
838.5	-0.248108	
839	-0.244141	
839.5	-0.238342	
840	-0.23407	
840.5	-0.228882	
841	-0.223999	
841.5	-0.219421	
842	-0.214233	
842.5	-0.209351	
843	-0.204468	
843.5	-0.19989	
844	-0.195313	
844.5	-0.190125	
845	-0.185242	
845.5	-0.179443	
846	-0.174866	
846.5	-0.170593	
847	-0.16571	
847.5	-0.160522	
848	-0.155334	
848.5	-0.150757	
849	-0.145569	
849.5	-0.141602	
850	-0.136108	
850.5	-0.131531	
851	-0.126343	
851.5	-0.12146	
852	-0.116882	
852.5	-0.111694	
853	-0.106506	
853.5	-0.101318	
854	-0.0970459	
854.5	-0.0918579	
855	-0.0869751	
855.5	-0.0823975	
856	-0.0769043	
856.5	-0.0726318	
857	-0.0680542	
857.5	-0.0622559	
858	-0.057373	
858.5	-0.0531006	
859	-0.0485229	
859.5	-0.043335	
860	-0.0384521	
860.5	-0.032959	
861	-0.0286865	
861.5	-0.0274658	
862	-0.0238037	
862.5	-0.0192261	
863	-0.0134277	
863.5	-0.00976563	
864	-0.00427246	
864.5	0.000305176	
865	0.00488281	
865.5	0.0100708	
866	0.0152588	
866.5	0.0201416	
867	0.0253296	
867.5	0.0296021	
868	0.03479	
868.5	0.0396729	
869	0.0442505	
869.5	0.0494385	
870	0.0549316	
870.5	0.0585938	
871	0.0637817	
871.5	0.0662231	
872	0.0692749	
872.5	0.0735474	
873	0.0784302	
873.5	0.083313	
874	0.0878906	
874.5	0.0930786	
875	0.0982666	
875.5	0.102844	
876	0.108032	
876.5	0.112915	
877	0.116882	
877.5	0.119934	
878	0.122681	
878.5	0.126953	
879	0.132751	
879.5	0.136719	
880	0.142212	
880.5	0.146484	
881	0.150757	
881.5	0.15625	
882	0.160522	
882.5	0.164185	
883	0.166626	
883.5	0.171204	
884	0.175171	
884.5	0.180664	
885	0.185852	
885.5	0.190735	
886	0.196228	
886.5	0.198059	
887	0.2005	
887.5	0.205383	
888	0.210876	
888.5	0.215454	
889	0.220032	
889.5	0.221863	
890	0.225525	
890.5	0.229797	
891	0.235291	
891.5	0.239258	
892	0.244446	
892.5	0.249329	
893	0.251465	
893.5	0.255127	
894	0.258484	
894.5	0.263977	
895	0.26886	
895.5	0.270996	
896	0.274658	
896.5	0.278931	
897	0.283508	
897.5	0.288086	
898	0.290833	
898.5	0.293579	
899	0.298462	
899.5	0.30304	
900	0.308228	
900.5	0.310974	
901	0.31311	
901.5	0.318298	
902	0.322571	
902.5	0.325012	
903	0.328369	
903.5	0.332031	
904	0.337219	
904.5	0.341797	
905	0.344543	
905.5	0.34729	
906	0.351868	
906.5	0.357361	
907	0.359802	
907.5	0.362549	
908	0.367432	
908.5	0.371704	
909	0.374451	
909.5	0.377197	
910	0.381165	
910.5	0.383911	
911	0.386963	
911.5	0.391541	
912	0.395508	
912.5	0.399475	
913	0.401611	
913.5	0.405579	
914	0.408936	
914.5	0.411377	
915	0.415649	
915.5	0.419922	
916	0.423584	
916.5	0.426025	
917	0.430603	
917.5	0.43335	
918	0.436707	
918.5	0.440674	
919	0.44281	
919.5	0.445557	
920	0.450745	
920.5	0.452881	
921	0.455627	
921.5	0.4599	
922	0.462952	
922.5	0.465393	
923	0.469666	
923.5	0.472107	
924	0.475159	
924.5	0.477295	
925	0.480652	
925.5	0.483398	
926	0.487671	
926.5	0.489807	
927	0.49469	
927.5	0.497437	
928	0.500183	
928.5	0.50293	
929	0.505066	
929.5	0.509033	
930	0.51239	
930.5	0.513916	
931	0.517578	
931.5	0.518799	
932	0.523376	
932.5	0.526428	
933	0.52887	
933.5	0.532227	
934	0.533752	
934.5	0.536194	
935	0.539551	
935.5	0.542603	
936	0.546875	
936.5	0.548706	
937	0.550842	
937.5	0.553284	
938	0.55603	
938.5	0.558167	
939	0.560913	
939.5	0.563354	
940	0.565186	
940.5	0.567322	
941	0.570984	
941.5	0.573425	
942	0.575562	
942.5	0.577393	
943	0.58075	
943.5	0.582581	
944	0.585327	
944.5	0.587463	
945	0.59021	
945.5	0.592041	
946	0.594788	
946.5	0.597229	
947	0.59967	
947.5	0.602722	
948	0.604858	
948.5	0.606689	
949	0.609741	
949.5	0.612183	
950	0.614624	
950.5	0.616455	
951	0.619507	
951.5	0.620728	
952	0.621948	
952.5	0.62439	
953	0.626221	
953.5	0.629578	
954	0.630493	
954.5	0.631409	
955	0.634766	
955.5	0.636292	
956	0.639038	
956.5	0.640564	
957	0.641479	
957.5	0.644226	
958	0.645447	
958.5	0.649109	
959	0.65033	
959.5	0.651245	
960	0.653381	
960.5	0.654907	
961	0.656128	
961.5	0.65918	
962	0.661011	
962.5	0.663452	
963	0.665588	
963.5	0.665283	
964	0.668335	
964.5	0.670166	
965	0.670471	
965.5	0.673828	
966	0.674744	
966.5	0.674744	
967	0.675659	
967.5	0.678711	
968	0.679321	
968.5	0.680237	
969	0.683594	
969.5	0.68512	
970	0.68512	
970.5	0.688477	
971	0.689697	
971.5	0.689087	
972	0.690613	
972.5	0.692749	
973	0.69397	
973.5	0.69458	
974	0.695496	
974.5	0.697937	
975	0.699158	
975.5	0.699463	
976	0.699768	
976.5	0.703125	
977	0.704346	
977.5	0.704041	
978	0.704651	
978.5	0.704651	
979	0.707092	
979.5	0.709229	
980	0.709839	
980.5	0.709534	
981	0.709839	
981.5	0.712585	
982	0.713806	
982.5	0.715332	
983	0.714417	
983.5	0.713806	
984	0.715027	
984.5	0.717773	
985	0.719299	
985.5	0.719299	
986	0.719299	
986.5	0.719299	
987	0.719604	
987.5	0.722351	
988	0.724487	
988.5	0.724487	
989	0.724487	
989.5	0.723877	
990	0.724487	
990.5	0.724792	
991	0.724182	
991.5	0.726624	
992	0.729065	
992.5	0.729675	
993	0.729065	
993.5	0.729065	
994	0.729675	
994.5	0.729065	
995	0.72937	
995.5	0.729675	
996	0.729065	
996.5	0.72876	
997	0.729675	
997.5	0.72937	
998	0.731506	
998.5	0.734253	
999	0.734253	
999.5	0.734253	
1000	0.734558	
1000.5	0.733948	
1001	0.734253	
1001.5	0.733948	
1002	0.733948	
1002.5	0.733948	
1003	0.734863	
1003.5	0.734558	
1004	0.733948	
1004.5	0.734558	
1005	0.733643	
1005.5	0.734863	
1006	0.734863	
1006.5	0.734558	
1007	0.733948	
1007.5	0.734558	
1008	0.733948	
1008.5	0.734253	
1009	0.733643	
1009.5	0.734863	
1010	0.734558	
1010.5	0.734253	
1011	0.731201	
1011.5	0.729675	
1012	0.729675	
1012.5	0.729675	
1013	0.72937	
1013.5	0.72937	
1014	0.729065	
1014.5	0.72937	
1015	0.729675	
1015.5	0.729065	
1016	0.72937	
1016.5	0.72937	
1017	0.729675	
1017.5	0.728455	
1018	0.727234	
1018.5	0.724487	
1019	0.724182	
1019.5	0.724182	
1020	0.724182	
1020.5	0.724792	
1021	0.724182	
1021.5	0.724487	
1022	0.724182	
1022.5	0.721436	
1023	0.71991	
1023.5	0.719604	
1024	0.718689	
1024.5	0.71991	
1025	0.71991	
1025.5	0.718994	
1026	0.717468	
1026.5	0.714722	
1027	0.714722	
1027.5	0.714417	
1028	0.714722	
1028.5	0.714111	
1029	0.715332	
1029.5	0.711975	
1030	0.710449	
1030.5	0.709534	
1031	0.709534	
1031.5	0.709229	
1032	0.709839	
1032.5	0.706482	
1033	0.705566	
1033.5	0.704041	
1034	0.704346	
1034.5	0.704651	
1035	0.701904	
1035.5	0.700073	
1036	0.699768	
1036.5	0.699158	
1037	0.700073	
1037.5	0.697632	
1038	0.695801	
1038.5	0.69458	
1039	0.69458	
1039.5	0.694275	
1040	0.691833	
1040.5	0.690613	
1041	0.689392	
1041.5	0.689392	
1042	0.690002	
1042.5	0.687866	
1043	0.685425	
1043.5	0.684814	
1044	0.684509	
1044.5	0.682678	
1045	0.680542	
1045.5	0.680237	
1046	0.679626	
1046.5	0.679626	
1047	0.678406	
1047.5	0.675659	
1048	0.675049	
1048.5	0.675354	
1049	0.672913	
1049.5	0.671082	
1050	0.669556	
1050.5	0.669861	
1051	0.66803	
1051.5	0.666199	
1052	0.664673	
1052.5	0.664673	
1053	0.662537	
1053.5	0.661316	
1054	0.660706	
1054.5	0.6604	
1055	0.658264	
1055.5	0.655518	
1056	0.655518	
1056.5	0.654907	
1057	0.653381	
1057.5	0.65155	
1058	0.650635	
1058.5	0.65033	
1059	0.648193	
1059.5	0.646667	
1060	0.645752	
1060.5	0.644531	
1061	0.641174	
1061.5	0.640564	
1062	0.640869	
1062.5	0.638428	
1063	0.636597	
1063.5	0.635986	
1064	0.635071	
1064.5	0.634155	
1065	0.631104	
1065.5	0.629883	
1066	0.629578	
1066.5	0.626831	
1067	0.62561	
1067.5	0.62561	
1068	0.62439	
1068.5	0.621948	
1069	0.621033	
1069.5	0.618896	
1070	0.617371	
1070.5	0.61676	
1071	0.615845	
1071.5	0.614929	
1072	0.612488	
1072.5	0.611877	
1073	0.610352	
1073.5	0.606995	
1074	0.606079	
1074.5	0.606384	
1075	0.604858	
1075.5	0.602722	
1076	0.600586	
1076.5	0.59967	
1077	0.597534	
1077.5	0.596008	
1078	0.594788	
1078.5	0.592346	
1079	0.592041	
1079.5	0.591431	
1080	0.591125	
1080.5	0.588379	
1081	0.586243	
1081.5	0.585632	
1082	0.582886	
1082.5	0.582581	
1083	0.580139	
1083.5	0.577698	
1084	0.576477	
1084.5	0.575562	
1085	0.572815	
1085.5	0.57251	
1086	0.571594	
1086.5	0.571289	
1087	0.567932	
1087.5	0.567017	
1088	0.566406	
1088.5	0.563965	
1089	0.561829	
1089.5	0.561218	
1090	0.558167	
1090.5	0.556641	
1091	0.555725	
1091.5	0.553284	
1092	0.552673	
1092.5	0.551453	
1093	0.548401	
1093.5	0.547485	
1094	0.548096	
1094.5	0.54657	
1095	0.543213	
1095.5	0.542603	
1096	0.541992	
1096.5	0.538635	
1097	0.538025	
1097.5	0.536804	
1098	0.534668	
1098.5	0.533142	
1099	0.531921	
1099.5	0.52948	
1100	0.528259	
1100.5	0.527039	
1101	0.524902	
1101.5	0.523071	
1102	0.522461	
1102.5	0.519714	
1103	0.518188	
1103.5	0.517883	
1104	0.517883	
1104.5	0.514526	
1105	0.513306	
1105.5	0.512695	
1106	0.509949	
1106.5	0.508423	
1107	0.507507	
1107.5	0.504456	
1108	0.503235	
1108.5	0.503235	
1109	0.500183	
1109.5	0.498352	
1110	0.497437	
1110.5	0.494995	
1111	0.493774	
1111.5	0.493469	
1112	0.489807	
1112.5	0.489197	
1113	0.487671	
1113.5	0.484619	
1114	0.483398	
1114.5	0.483704	
1115	0.480347	
1115.5	0.479126	
1116	0.477905	
1116.5	0.474854	
1117	0.474243	
1117.5	0.473022	
1118	0.470276	
1118.5	0.46936	
1119	0.469055	
1119.5	0.466003	
1120	0.464172	
1120.5	0.463257	
1121	0.46051	
1121.5	0.45929	
1122	0.458984	
1122.5	0.456238	
1123	0.453796	
1123.5	0.453186	
1124	0.450439	
1124.5	0.449524	
1125	0.448914	
1125.5	0.446472	
1126	0.444641	
1126.5	0.444031	
1127	0.441589	
1127.5	0.439758	
1128	0.439758	
1128.5	0.436401	
1129	0.435181	
1129.5	0.43457	
1130	0.431824	
1130.5	0.429993	
1131	0.429993	
1131.5	0.426941	
1132	0.4245	
1132.5	0.423584	
1133	0.422058	
1133.5	0.419922	
1134	0.419006	
1134.5	0.417175	
1135	0.415039	
1135.5	0.414429	
1136	0.412598	
1136.5	0.410156	
1137	0.409546	
1137.5	0.40741	
1138	0.405273	
1138.5	0.404358	
1139	0.402527	
1139.5	0.400391	
1140	0.397949	
1140.5	0.395813	
1141	0.395508	
1141.5	0.392761	
1142	0.390015	
1142.5	0.390015	
1143	0.386963	
1143.5	0.385437	
1144	0.385132	
1144.5	0.382385	
1145	0.381165	
1145.5	0.380554	
1146	0.378113	
1146.5	0.376587	
1147	0.375366	
1147.5	0.372925	
1148	0.370178	
1148.5	0.367737	
1149	0.366516	
1149.5	0.365601	
1150	0.363159	
1150.5	0.360718	
1151	0.360107	
1151.5	0.358276	
1152	0.355835	
1152.5	0.35553	
1153	0.353394	
1153.5	0.350952	
1154	0.350952	
1154.5	0.3479	
1155	0.346375	
1155.5	0.343323	
1156	0.341797	
1156.5	0.340576	
1157	0.33844	
1157.5	0.337219	
1158	0.335388	
1158.5	0.333862	
1159	0.331421	
1159.5	0.3302	
1160	0.328674	
1160.5	0.326233	
1161	0.323792	
1161.5	0.32196	
1162	0.32074	
1162.5	0.319519	
1163	0.316467	
1163.5	0.316162	
1164	0.314636	
1164.5	0.311584	
1165	0.311584	
1165.5	0.308838	
1166	0.306702	
1166.5	0.304565	
1167	0.301208	
1167.5	0.301208	
1168	0.299377	
1168.5	0.296936	
1169	0.296326	
1169.5	0.294495	
1170	0.292664	
1170.5	0.289917	
1171	0.286865	
1171.5	0.286865	
1172	0.285034	
1172.5	0.282593	
1173	0.281677	
1173.5	0.280151	
1174	0.278015	
1174.5	0.276794	
1175	0.274658	
1175.5	0.273438	
1176	0.270386	
1176.5	0.267944	
1177	0.267029	
1177.5	0.265503	
1178	0.263062	
1178.5	0.261841	
1179	0.26062	
1179.5	0.257874	
1180	0.256042	
1180.5	0.252991	
1181	0.25238	
1181.5	0.25116	
1182	0.248108	
1182.5	0.247803	
1183	0.245972	
1183.5	0.24292	
1184	0.241089	
1184.5	0.237732	
1185	0.237427	
1185.5	0.235901	
1186	0.233459	
1186.5	0.232544	
1187	0.231323	
1187.5	0.228271	
1188	0.22644	
1188.5	0.223999	
1189	0.222778	
1189.5	0.221863	
1190	0.218811	
1190.5	0.218201	
1191	0.217285	
1191.5	0.214233	
1192	0.212402	
1192.5	0.209351	
1193	0.208435	
1193.5	0.206604	
1194	0.204468	
1194.5	0.204163	
1195	0.202637	
1195.5	0.19928	
1196	0.197449	
1196.5	0.195007	
1197	0.193481	
1197.5	0.192261	
1198	0.189514	
1198.5	0.188599	
1199	0.187073	
1199.5	0.184021	
1200	0.18219	
1200.5	0.179443	
1201	0.178528	
1201.5	0.177917	
1202	0.174561	
1202.5	0.174255	
1203	0.172729	
1203.5	0.169678	
1204	0.167542	
1204.5	0.1651	
1205	0.163574	
1205.5	0.162964	
1206	0.160522	
1206.5	0.158997	
1207	0.158081	
1207.5	0.155334	
1208	0.153503	
1208.5	0.150757	
1209	0.149536	
1209.5	0.148315	
1210	0.145569	
1210.5	0.144653	
1211	0.143127	
1211.5	0.140381	
1212	0.13916	
1212.5	0.135803	
1213	0.134277	
1213.5	0.133362	
1214	0.13031	
1214.5	0.130005	
1215	0.128784	
1215.5	0.126343	
1216	0.124512	
1216.5	0.124512	
1217	0.12085	
1217.5	0.119324	
1218	0.116577	
1218.5	0.115356	
1219	0.114441	
1219.5	0.111389	
1220	0.110168	
1220.5	0.109558	
1221	0.105896	
1221.5	0.105286	
1222	0.101624	
1222.5	0.100403	
1223	0.0994873	
1223.5	0.0967407	
1224	0.0952148	
1224.5	0.0949097	
1225	0.0912476	
1225.5	0.0906372	
1226	0.0900269	
1226.5	0.0872803	
1227	0.0857544	
1227.5	0.0814819	
1228	0.0808716	
1228.5	0.0796509	
1229	0.0775146	
1229.5	0.0765991	
1230	0.0756836	
1230.5	0.0732422	
1231	0.0717163	
1231.5	0.0701904	
1232	0.0680542	
1232.5	0.0668335	
1233	0.062561	
1233.5	0.0622559	
1234	0.0610352	
1234.5	0.0579834	
1235	0.0570679	
1235.5	0.0558472	
1236	0.0531006	
1236.5	0.0521851	
1237	0.0512695	
1237.5	0.0488281	
1238	0.0466919	
1238.5	0.0439453	
1239	0.0424194	
1239.5	0.0411987	
1240	0.0384521	
1240.5	0.0378418	
1241	0.0360107	
1241.5	0.0341797	
1242	0.0320435	
1242.5	0.0314331	
1243	0.0292969	
1243.5	0.0274658	
1244	0.0238037	
1244.5	0.0222778	
1245	0.0219727	
1245.5	0.0186157	
1246	0.0180054	
1246.5	0.0167847	
1247	0.0146484	
1247.5	0.0128174	
1248	0.012207	
1248.5	0.00915527	
1249	0.00732422	
1249.5	0.00732422	
1250	0.00427246	
1250.5	0.00305176	
1251	0.00244141	
1251.5	-0.000915527	
1252	-0.00213623	
1252.5	-0.00579834	
1253	-0.00701904	
1253.5	-0.00762939	
1254	-0.0109863	
1254.5	-0.012207	
1255	-0.0125122	
1255.5	-0.0146484	
1256	-0.0167847	
1256.5	-0.017395	
1257	-0.0201416	
1257.5	-0.0219727	
1258	-0.0219727	
1258.5	-0.0253296	
1259	-0.0265503	
1259.5	-0.0268555	
1260	-0.0292969	
1260.5	-0.0314331	
1261	-0.0341797	
1261.5	-0.0360107	
1262	-0.0366211	
1262.5	-0.0390625	
1263	-0.0408936	
1263.5	-0.0415039	
1264	-0.0445557	
1264.5	-0.0457764	
1265	-0.0463867	
1265.5	-0.0488281	
1266	-0.0515747	
1266.5	-0.0515747	
1267	-0.0540161	
1267.5	-0.0561523	
1268	-0.0567627	
1268.5	-0.0585938	
1269	-0.0604248	
1269.5	-0.0613403	
1270	-0.0631714	
1270.5	-0.065918	
1271	-0.065918	
1271.5	-0.0689697	
1272	-0.0704956	
1272.5	-0.0738525	
1273	-0.0756836	
1273.5	-0.0762939	
1274	-0.078125	
1274.5	-0.0805664	
1275	-0.0802612	
1275.5	-0.0830078	
1276	-0.085144	
1276.5	-0.0857544	
1277	-0.0875854	
1277.5	-0.0897217	
1278	-0.0909424	
1278.5	-0.0924683	
1279	-0.0946045	
1279.5	-0.0952148	
1280	-0.0976563	
1280.5	-0.0994873	
1281	-0.0997925	
1281.5	-0.10376	
1282	-0.104675	
1282.5	-0.104675	
1283	-0.107422	
1283.5	-0.109253	
1284	-0.109558	
1284.5	-0.11261	
1285	-0.114746	
1285.5	-0.115662	
1286	-0.117188	
1286.5	-0.119629	
1287	-0.119934	
1287.5	-0.122986	
1288	-0.124207	
1288.5	-0.126953	
1289	-0.129089	
1289.5	-0.1297	
1290	-0.131836	
1290.5	-0.134277	
1291	-0.135498	
1291.5	-0.136719	
1292	-0.138245	
1292.5	-0.13916	
1293	-0.141296	
1293.5	-0.144958	
1294	-0.144958	
1294.5	-0.146484	
1295	-0.148926	
1295.5	-0.149536	
1296	-0.151367	
1296.5	-0.153809	
1297	-0.154419	
1297.5	-0.15625	
1298	-0.158081	
1298.5	-0.159302	
1299	-0.160522	
1299.5	-0.162659	
1300	-0.163269	
1300.5	-0.165405	
1301	-0.168152	
1301.5	-0.168457	
1302	-0.170593	
1302.5	-0.173645	
1303	-0.17395	
1303.5	-0.176086	
1304	-0.178833	
1304.5	-0.180664	
1305	-0.1828	
1305.5	-0.183411	
1306	-0.185242	
1306.5	-0.188599	
1307	-0.188599	
1307.5	-0.19043	
1308	-0.192871	
1308.5	-0.193481	
1309	-0.195313	
1309.5	-0.198059	
1310	-0.198669	
1310.5	-0.200195	
1311	-0.202942	
1311.5	-0.203552	
1312	-0.205078	
1312.5	-0.207825	
1313	-0.208435	
1313.5	-0.209656	
1314	-0.211792	
1314.5	-0.213623	
1315	-0.214233	
1315.5	-0.217896	
1316	-0.218201	
1316.5	-0.219727	
1317	-0.222168	
1317.5	-0.222778	
1318	-0.224304	
1318.5	-0.226746	
1319	-0.228577	
1319.5	-0.229187	
1320	-0.232239	
1320.5	-0.232849	
1321	-0.234985	
1321.5	-0.236816	
1322	-0.238037	
1322.5	-0.238647	
1323	-0.239258	
1323.5	-0.242004	
1324	-0.242004	
1324.5	-0.243835	
1325	-0.246887	
1325.5	-0.247803	
1326	-0.249023	
1326.5	-0.25177	
1327	-0.252991	
1327.5	-0.254211	
1328	-0.256042	
1328.5	-0.257263	
1329	-0.258789	
1329.5	-0.26123	
1330	-0.262146	
1330.5	-0.263367	
1331	-0.266113	
1331.5	-0.267029	
1332	-0.267029	
1332.5	-0.268555	
1333	-0.270996	
1333.5	-0.272217	
1334	-0.273132	
1334.5	-0.276489	
1335	-0.277405	
1335.5	-0.278625	
1336	-0.281067	
1336.5	-0.282288	
1337	-0.282593	
1337.5	-0.283203	
1338	-0.285645	
1338.5	-0.287476	
1339	-0.28717	
1339.5	-0.291138	
1340	-0.292053	
1340.5	-0.293579	
1341	-0.29541	
1341.5	-0.297241	
1342	-0.296936	
1342.5	-0.298462	
1343	-0.299988	
1343.5	-0.301208	
1344	-0.302429	
1344.5	-0.305481	
1345	-0.305786	
1345.5	-0.308838	
1346	-0.310669	
1346.5	-0.31189	
1347	-0.31189	
1347.5	-0.312195	
1348	-0.314941	
1348.5	-0.315552	
1349	-0.317078	
1349.5	-0.320129	
1350	-0.321045	
1350.5	-0.321655	
1351	-0.32196	
1351.5	-0.324707	
1352	-0.325623	
1352.5	-0.326538	
1353	-0.3302	
1353.5	-0.331421	
1354	-0.331421	
1354.5	-0.331726	
1355	-0.335083	
1355.5	-0.336914	
1356	-0.336304	
1356.5	-0.339966	
1357	-0.340881	
1357.5	-0.341797	
1358	-0.341492	
1358.5	-0.344238	
1359	-0.345764	
1359.5	-0.345764	
1360	-0.346375	
1360.5	-0.349121	
1361	-0.350342	
1361.5	-0.351257	
1362	-0.354309	
1362.5	-0.35553	
1363	-0.35614	
1363.5	-0.356445	
1364	-0.359497	
1364.5	-0.360413	
1365	-0.360413	
1365.5	-0.361328	
1366	-0.36377	
1366.5	-0.365295	
1367	-0.366516	
1367.5	-0.369263	
1368	-0.370483	
1368.5	-0.370178	
1369	-0.370789	
1369.5	-0.373535	
1370	-0.374756	
1370.5	-0.375671	
1371	-0.376587	
1371.5	-0.378418	
1372	-0.380249	
1372.5	-0.381165	
1373	-0.380859	
1373.5	-0.383911	
1374	-0.385132	
1374.5	-0.386047	
1375	-0.388489	
1375.5	-0.389404	
1376	-0.389709	
1376.5	-0.390625	
1377	-0.393066	
1377.5	-0.394897	
1378	-0.395508	
1378.5	-0.394592	
1379	-0.397949	
1379.5	-0.399475	
1380	-0.39978	
1380.5	-0.400085	
1381	-0.403137	
1381.5	-0.404663	
1382	-0.404968	
1382.5	-0.407715	
1383	-0.409546	
1383.5	-0.409546	
1384	-0.410156	
1384.5	-0.412598	
1385	-0.414429	
1385.5	-0.414734	
1386	-0.414734	
1386.5	-0.418091	
1387	-0.419006	
1387.5	-0.419617	
1388	-0.419617	
1388.5	-0.422974	
1389	-0.422974	
1389.5	-0.424194	
1390	-0.424194	
1390.5	-0.426941	
1391	-0.429382	
1391.5	-0.429382	
1392	-0.429688	
1392.5	-0.432434	
1393	-0.433655	
1393.5	-0.433655	
1394	-0.437622	
1394.5	-0.438843	
1395	-0.439453	
1395.5	-0.439453	
1396	-0.4422	
1396.5	-0.443115	
1397	-0.444641	
1397.5	-0.443726	
1398	-0.446777	
1398.5	-0.448303	
1399	-0.448914	
1399.5	-0.448914	
1400	-0.45166	
1400.5	-0.453796	
1401	-0.453491	
1401.5	-0.454102	
1402	-0.456238	
1402.5	-0.458374	
1403	-0.458679	
1403.5	-0.458374	
1404	-0.461121	
1404.5	-0.463562	
1405	-0.463257	
1405.5	-0.464172	
1406	-0.466614	
1406.5	-0.469055	
1407	-0.468445	
1407.5	-0.469055	
1408	-0.470581	
1408.5	-0.473328	
1409	-0.473633	
1409.5	-0.473633	
1410	-0.475769	
1410.5	-0.477905	
1411	-0.478516	
1411.5	-0.477905	
1412	-0.480957	
1412.5	-0.482483	
1413	-0.483093	
1413.5	-0.483704	
1414	-0.48584	
1414.5	-0.487671	
1415	-0.488586	
1415.5	-0.488586	
1416	-0.490417	
1416.5	-0.492554	
1417	-0.493164	
1417.5	-0.493469	
1418	-0.4953	
1418.5	-0.498047	
1419	-0.497437	
1419.5	-0.498352	
1420	-0.500183	
1420.5	-0.502319	
1421	-0.50354	
1421.5	-0.50293	
1422	-0.505371	
1422.5	-0.507202	
1423	-0.508728	
1423.5	-0.508728	
1424	-0.510559	
1424.5	-0.512695	
1425	-0.513	
1425.5	-0.512695	
1426	-0.512695	
1426.5	-0.514526	
1427	-0.517273	
1427.5	-0.517578	
1428	-0.517273	
1428.5	-0.519409	
1429	-0.522156	
1429.5	-0.522461	
1430	-0.522461	
1430.5	-0.523682	
1431	-0.527039	
1431.5	-0.527649	
1432	-0.528259	
1432.5	-0.52948	
1433	-0.531616	
1433.5	-0.532227	
1434	-0.532532	
1434.5	-0.533142	
1435	-0.534363	
1435.5	-0.536499	
1436	-0.537415	
1436.5	-0.53772	
1437	-0.539246	
1437.5	-0.541077	
1438	-0.542908	
1438.5	-0.542603	
1439	-0.544434	
1439.5	-0.546875	
1440	-0.548096	
1440.5	-0.547791	
1441	-0.54718	
1441.5	-0.549316	
1442	-0.551147	
1442.5	-0.552979	
1443	-0.552673	
1443.5	-0.553894	
1444	-0.556946	
1444.5	-0.557861	
1445	-0.557556	
1445.5	-0.557556	
1446	-0.559082	
1446.5	-0.561523	
1447	-0.562134	
1447.5	-0.562134	
1448	-0.563965	
1448.5	-0.566101	
1449	-0.567322	
1449.5	-0.567017	
1450	-0.567322	
1450.5	-0.568237	
1451	-0.570679	
1451.5	-0.572205	
1452	-0.57251	
1452.5	-0.572205	
1453	-0.572815	
1453.5	-0.576477	
1454	-0.576477	
1454.5	-0.577087	
1455	-0.578613	
1455.5	-0.581055	
1456	-0.582581	
1456.5	-0.582275	
1457	-0.582886	
1457.5	-0.582886	
1458	-0.585938	
1458.5	-0.587463	
1459	-0.587463	
1459.5	-0.587158	
1460	-0.587769	
1460.5	-0.590515	
1461	-0.592041	
1461.5	-0.592041	
1462	-0.592346	
1462.5	-0.592346	
1463	-0.595703	
1463.5	-0.597229	
1464	-0.597229	
1464.5	-0.597534	
1465	-0.600281	
1465.5	-0.602417	
1466	-0.601807	
1466.5	-0.600891	
1467	-0.602112	
1467.5	-0.605164	
1468	-0.605774	
1468.5	-0.606995	
1469	-0.606995	
1469.5	-0.60791	
1470	-0.610046	
1470.5	-0.611267	
1471	-0.611572	
1471.5	-0.611267	
1472	-0.611877	
1472.5	-0.614929	
1473	-0.61554	
1473.5	-0.617065	
1474	-0.61676	
1474.5	-0.617371	
1475	-0.619812	
1475.5	-0.621338	
1476	-0.621643	
1476.5	-0.621643	
1477	-0.621948	
1477.5	-0.625	
1478	-0.62561	
1478.5	-0.626831	
1479	-0.626221	
1479.5	-0.626831	
1480	-0.629272	
1480.5	-0.630493	
1481	-0.631104	
1481.5	-0.631104	
1482	-0.631714	
1482.5	-0.63446	
1483	-0.635986	
1483.5	-0.635681	
1484	-0.636292	
1484.5	-0.636292	
1485	-0.636292	
1485.5	-0.639343	
1486	-0.640869	
1486.5	-0.640869	
1487	-0.640564	
1487.5	-0.641174	
1488	-0.644226	
1488.5	-0.645752	
1489	-0.646362	
1489.5	-0.646362	
1490	-0.646362	
1490.5	-0.649414	
1491	-0.65094	
1491.5	-0.651245	
1492	-0.65155	
1492.5	-0.65094	
1493	-0.650635	
1493.5	-0.653687	
1494	-0.656128	
1494.5	-0.655823	
1495	-0.655518	
1495.5	-0.656128	
1496	-0.656128	
1496.5	-0.658264	
1497	-0.661011	
1497.5	-0.661011	
1498	-0.661011	
1498.5	-0.661011	
1499	-0.664063	
1499.5	-0.666199	
1500	-0.665283	
1500.5	-0.666199	
1501	-0.665588	
1501.5	-0.665588	
1502	-0.666504	
1502.5	-0.668335	
1503	-0.669861	
1503.5	-0.670471	
1504	-0.670776	
1504.5	-0.670471	
1505	-0.670471	
1505.5	-0.673218	
1506	-0.675354	
1506.5	-0.675049	
1507	-0.675659	
1507.5	-0.675659	
1508	-0.675354	
1508.5	-0.675659	
1509	-0.678101	
1509.5	-0.680542	
1510	-0.680237	
1510.5	-0.679932	
1511	-0.679932	
1511.5	-0.680542	
1512	-0.680237	
1512.5	-0.680237	
1513	-0.682983	
1513.5	-0.684814	
1514	-0.68512	
1514.5	-0.685425	
1515	-0.684814	
1515.5	-0.685425	
1516	-0.684814	
1516.5	-0.684814	
1517	-0.68512	
1517.5	-0.685425	
1518	-0.688171	
1518.5	-0.689392	
1519	-0.690308	
1519.5	-0.689697	
1520	-0.690308	
1520.5	-0.690002	
1521	-0.690918	
1521.5	-0.690613	
1522	-0.690308	
1522.5	-0.690308	
1523	-0.690308	
1523.5	-0.690308	
1524	-0.690002	
1524.5	-0.690613	
1525	-0.690308	
1525.5	-0.690613	
1526	-0.692749	
1526.5	-0.69397	
1527	-0.69519	
1527.5	-0.69519	
1528	-0.695496	
1528.5	-0.694885	
1529	-0.69519	
1529.5	-0.69519	
1530	-0.695496	
1530.5	-0.694885	
1531	-0.694885	
1531.5	-0.695496	
1532	-0.695496	
1532.5	-0.69519	
1533	-0.693054	
1533.5	-0.690918	
1534	-0.690002	
1534.5	-0.690308	
1535	-0.690308	
1535.5	-0.690613	
1536	-0.690002	
1536.5	-0.690308	
1537	-0.690613	
1537.5	-0.690613	
1538	-0.689392	
1538.5	-0.690002	
1539	-0.689697	
1539.5	-0.690002	
1540	-0.689697	
1540.5	-0.688477	
1541	-0.686035	
1541.5	-0.68512	
1542	-0.68512	
1542.5	-0.68512	
1543	-0.684814	
1543.5	-0.68512	
1544	-0.683289	
1544.5	-0.681458	
1545	-0.680237	
1545.5	-0.679932	
1546	-0.680237	
1546.5	-0.679932	
1547	-0.678101	
1547.5	-0.675964	
1548	-0.675964	
1548.5	-0.674744	
1549	-0.675354	
1549.5	-0.673523	
1550	-0.671997	
1550.5	-0.670471	
1551	-0.670471	
1551.5	-0.66864	
1552	-0.666504	
1552.5	-0.665894	
1553	-0.664978	
1553.5	-0.664673	
1554	-0.661621	
1554.5	-0.661316	
1555	-0.658569	
1555.5	-0.656738	
1556	-0.655823	
1556.5	-0.653687	
1557	-0.652161	
1557.5	-0.650635	
1558	-0.649109	
1558.5	-0.646973	
1559	-0.646362	
1559.5	-0.645142	
1560	-0.641785	
1560.5	-0.641785	
1561	-0.639343	
1561.5	-0.637207	
1562	-0.634766	
1562.5	-0.631714	
1563	-0.631714	
1563.5	-0.629272	
1564	-0.627441	
1564.5	-0.624695	
1565	-0.622559	
1565.5	-0.621033	
1566	-0.620422	
1566.5	-0.617676	
1567	-0.614929	
1567.5	-0.612793	
1568	-0.610962	
1568.5	-0.607605	
1569	-0.605774	
1569.5	-0.603333	
1570	-0.600586	
1570.5	-0.597534	
1571	-0.595093	
1571.5	-0.592957	
1572	-0.590515	
1572.5	-0.587769	
1573	-0.585632	
1573.5	-0.583801	
1574	-0.581055	
1574.5	-0.576782	
1575	-0.573425	
1575.5	-0.571289	
1576	-0.568237	
1576.5	-0.566406	
1577	-0.563049	
1577.5	-0.559387	
1578	-0.556641	
1578.5	-0.553894	
1579	-0.551758	
1579.5	-0.548096	
1580	-0.543823	
1580.5	-0.541382	
1581	-0.53894	
1581.5	-0.536499	
1582	-0.532532	
1582.5	-0.52887	
1583	-0.526733	
1583.5	-0.522766	
1584	-0.519409	
1584.5	-0.516968	
1585	-0.513916	
1585.5	-0.508728	
1586	-0.504456	
1586.5	-0.502625	
1587	-0.498962	
1587.5	-0.495605	
1588	-0.493469	
1588.5	-0.488892	
1589	-0.484314	
1589.5	-0.480957	
1590	-0.4776	
1590.5	-0.473633	
1591	-0.46875	
1591.5	-0.466309	
1592	-0.462646	
1592.5	-0.45929	
1593	-0.455322	
1593.5	-0.45105	
1594	-0.448914	
1594.5	-0.444641	
1595	-0.440063	
1595.5	-0.435181	
1596	-0.430908	
1596.5	-0.429382	
1597	-0.42511	
1597.5	-0.420837	
1598	-0.415649	
1598.5	-0.411072	
1599	-0.409241	
1599.5	-0.406494	
1600	-0.400391	
1600.5	-0.396423	
1601	-0.39093	
1601.5	-0.387268	
1602	-0.384827	
1602.5	-0.381775	
1603	-0.377502	
1603.5	-0.372925	
1604	-0.367126	
1604.5	-0.362244	
1605	-0.357361	
1605.5	-0.353088	
1606	-0.350952	
1606.5	-0.346375	
1607	-0.343018	
1607.5	-0.33783	
1608	-0.332947	
1608.5	-0.328369	
1609	-0.322876	
1609.5	-0.318604	
1610	-0.314026	
1610.5	-0.31189	
1611	-0.307922	
1611.5	-0.303955	
1612	-0.298767	
1612.5	-0.294189	
1613	-0.289612	
1613.5	-0.283813	
1614	-0.279541	
1614.5	-0.274658	
1615	-0.26947	
1615.5	-0.264893	
1616	-0.26001	
1616.5	-0.257263	
1617	-0.254211	
1617.5	-0.250244	
1618	-0.244141	
1618.5	-0.239868	
1619	-0.235291	
1619.5	-0.230408	
1620	-0.22522	
1620.5	-0.220947	
1621	-0.215149	
1621.5	-0.210876	
1622	-0.204773	
1622.5	-0.200806	
1623	-0.195923	
1623.5	-0.191345	
1624	-0.186157	
1624.5	-0.184326	
1625	-0.18158	
1625.5	-0.175171	
1626	-0.170898	
1626.5	-0.16571	
1627	-0.161743	
1627.5	-0.15686	
1628	-0.152588	
1628.5	-0.146484	
1629	-0.142212	
1629.5	-0.137634	
1630	-0.132446	
1630.5	-0.126648	
1631	-0.122681	
1631.5	-0.116882	
1632	-0.112	
1632.5	-0.108337	
1633	-0.106201	
1633.5	-0.102234	
1634	-0.0982666	
1634.5	-0.0930786	
1635	-0.088501	
1635.5	-0.0830078	
1636	-0.078125	
1636.5	-0.0738525	
1637	-0.0683594	
1637.5	-0.0646973	
1638	-0.0588989	
1638.5	-0.0537109	
1639	-0.0488281	
1639.5	-0.0442505	
1640	-0.0390625	
1640.5	-0.0372314	
1641	-0.0338745	
1641.5	-0.0299072	
1642	-0.0250244	
1642.5	-0.0201416	
1643	-0.0152588	
1643.5	-0.0100708	
1644	-0.00488281	
1644.5	-0.000305176	
1645	0.00457764	
1645.5	0.00915527	
1646	0.0143433	
1646.5	0.017395	
1647	0.0198364	
1647.5	0.0238037	
1648	0.0283813	
1648.5	0.0341797	
1649	0.0390625	
1649.5	0.0430298	
1650	0.0482178	
1650.5	0.0534058	
1651	0.0558472	
1651.5	0.0592041	
1652	0.0634766	
1652.5	0.0683594	
1653	0.0732422	
1653.5	0.0775146	
1654	0.0823975	
1654.5	0.0869751	
1655	0.0894165	
1655.5	0.0927734	
1656	0.0967407	
1656.5	0.101929	
1657	0.106812	
1657.5	0.111389	
1658	0.116272	
1658.5	0.119324	
1659	0.12207	
1659.5	0.126343	
1660	0.131531	
1660.5	0.135803	
1661	0.140991	
1661.5	0.143738	
1662	0.146484	
1662.5	0.150757	
1663	0.155334	
1663.5	0.160217	
1664	0.165405	
1664.5	0.167847	
1665	0.171509	
1665.5	0.175476	
1666	0.179749	
1666.5	0.184631	
1667	0.187073	
1667.5	0.19043	
1668	0.194702	
1668.5	0.199585	
1669	0.204163	
1669.5	0.20752	
1670	0.210266	
1670.5	0.213928	
1671	0.218811	
1671.5	0.222168	
1672	0.225525	
1672.5	0.227966	
1673	0.233459	
1673.5	0.237732	
1674	0.241089	
1674.5	0.244141	
1675	0.248108	
1675.5	0.253296	
1676	0.256348	
1676.5	0.259399	
1677	0.263062	
1677.5	0.266113	
1678	0.26886	
1678.5	0.273438	
1679	0.277405	
1679.5	0.280762	
1680	0.283203	
1680.5	0.288086	
1681	0.290527	
1681.5	0.292969	
1682	0.297241	
1682.5	0.302124	
1683	0.305176	
1683.5	0.307312	
1684	0.311584	
1684.5	0.314941	
1685	0.317688	
1685.5	0.32135	
1686	0.324402	
1686.5	0.327148	
1687	0.331421	
1687.5	0.334778	
1688	0.336609	
1688.5	0.340576	
1689	0.344238	
1689.5	0.346375	
1690	0.350952	
1690.5	0.354004	
1691	0.357056	
1691.5	0.359192	
1692	0.361633	
1692.5	0.366211	
1693	0.369568	
1693.5	0.371094	
1694	0.375061	
1694.5	0.378113	
1695	0.381165	
1695.5	0.383911	
1696	0.386658	
1696.5	0.390015	
1697	0.393372	
1697.5	0.396423	
1698	0.398865	
1698.5	0.401306	
1699	0.402832	
1699.5	0.406799	
1700	0.410156	
1700.5	0.413513	
1701	0.415344	
1701.5	0.418091	
1702	0.420227	
1702.5	0.423279	
1703	0.42572	
1703.5	0.428467	
1704	0.429993	
1704.5	0.432434	
1705	0.435486	
1705.5	0.439453	
1706	0.442505	
1706.5	0.445251	
1707	0.447693	
1707.5	0.449829	
1708	0.452576	
1708.5	0.454407	
1709	0.457458	
1709.5	0.45929	
1710	0.462036	
1710.5	0.464478	
1711	0.467224	
1711.5	0.46936	
1712	0.471802	
1712.5	0.473633	
1713	0.474548	
1713.5	0.4776	
1714	0.479736	
1714.5	0.482483	
1715	0.483704	
1715.5	0.486755	
1716	0.488586	
1716.5	0.491943	
1717	0.493774	
1717.5	0.496826	
1718	0.498047	
1718.5	0.499268	
1719	0.500793	
1719.5	0.503845	
1720	0.506287	
1720.5	0.508118	
1721	0.511169	
1721.5	0.512695	
1722	0.513916	
1722.5	0.516968	
1723	0.518188	
1723.5	0.521851	
1724	0.522461	
1724.5	0.523682	
1725	0.525818	
1725.5	0.527954	
1726	0.531311	
1726.5	0.531921	
1727	0.533142	
1727.5	0.535889	
1728	0.537415	
1728.5	0.53772	
1729	0.540771	
1729.5	0.542908	
1730	0.545654	
1730.5	0.546875	
1731	0.547791	
1731.5	0.549927	
1732	0.551453	
1732.5	0.552673	
1733	0.55542	
1733.5	0.557251	
1734	0.557556	
1734.5	0.559692	
1735	0.561829	
1735.5	0.562439	
1736	0.56488	
1736.5	0.566711	
1737	0.566711	
1737.5	0.567322	
1738	0.570068	
1738.5	0.570679	
1739	0.57251	
1739.5	0.574951	
1740	0.576172	
1740.5	0.577087	
1741	0.576782	
1741.5	0.579834	
1742	0.581665	
1742.5	0.582275	
1743	0.584412	
1743.5	0.585938	
1744	0.586548	
1744.5	0.586853	
1745	0.589294	
1745.5	0.59082	
1746	0.591736	
1746.5	0.591125	
1747	0.592041	
1747.5	0.593567	
1748	0.596008	
1748.5	0.596008	
1749	0.596313	
1749.5	0.59967	
1750	0.600586	
1750.5	0.601196	
1751	0.600281	
1751.5	0.600891	
1752	0.603943	
1752.5	0.605469	
1753	0.605469	
1753.5	0.606689	
1754	0.606079	
1754.5	0.609131	
1755	0.610657	
1755.5	0.610962	
1756	0.610962	
1756.5	0.611572	
1757	0.611267	
1757.5	0.614319	
1758	0.615845	
1758.5	0.615845	
1759	0.615234	
1759.5	0.616455	
1760	0.616455	
1760.5	0.61615	
1761	0.61554	
1761.5	0.618286	
1762	0.619812	
1762.5	0.620422	
1763	0.621338	
1763.5	0.621033	
1764	0.620728	
1764.5	0.621338	
1765	0.620728	
1765.5	0.621033	
1766	0.624084	
1766.5	0.625	
1767	0.626221	
1767.5	0.625916	
1768	0.626221	
1768.5	0.626221	
1769	0.625916	
1769.5	0.62561	
1770	0.625916	
1770.5	0.626221	
1771	0.625916	
1771.5	0.626221	
1772	0.625916	
1772.5	0.625305	
1773	0.62561	
1773.5	0.62561	
1774	0.625916	
1774.5	0.625916	
1775	0.625916	
1775.5	0.625916	
1776	0.625305	
1776.5	0.626526	
1777	0.628662	
1777.5	0.630188	
1778	0.630798	
1778.5	0.630493	
1779	0.628052	
1779.5	0.626221	
1780	0.626221	
1780.5	0.625916	
1781	0.625305	
1781.5	0.625916	
1782	0.62561	
1782.5	0.62561	
1783	0.62561	
1783.5	0.625916	
1784	0.62561	
1784.5	0.625916	
1785	0.62561	
1785.5	0.62561	
1786	0.62561	
1786.5	0.625305	
1787	0.626221	
1787.5	0.625916	
1788	0.625305	
1788.5	0.62561	
1789	0.62561	
1789.5	0.626221	
1790	0.625305	
1790.5	0.623779	
1791	0.621643	
1791.5	0.621033	
1792	0.621033	
1792.5	0.620728	
1793	0.620728	
1793.5	0.620728	
1794	0.621033	
1794.5	0.620422	
1795	0.621643	
1795.5	0.619507	
1796	0.61676	
1796.5	0.61676	
1797	0.615845	
1797.5	0.615845	
1798	0.61554	
1798.5	0.616455	
1799	0.61615	
1799.5	0.615845	
1800	0.614624	
1800.5	0.611877	
1801	0.611267	
1801.5	0.610962	
1802	0.611267	
1802.5	0.611572	
1803	0.611267	
1803.5	0.609131	
1804	0.6073	
1804.5	0.606079	
1805	0.606079	
1805.5	0.605469	
1806	0.606384	
1806.5	0.604248	
1807	0.602112	
1807.5	0.601501	
1808	0.600891	
1808.5	0.600586	
1809	0.599976	
1809.5	0.599365	
1810	0.597229	
1810.5	0.596619	
1811	0.596008	
1811.5	0.596313	
1812	0.596313	
1812.5	0.594177	
1813	0.592346	
1813.5	0.591125	
1814	0.591431	
1814.5	0.591431	
1815	0.5896	
1815.5	0.587158	
1816	0.585938	
1816.5	0.586243	
1817	0.586548	
1817.5	0.585938	
1818	0.582886	
1818.5	0.58136	
1819	0.581665	
1819.5	0.58136	
1820	0.580139	
1820.5	0.578308	
1821	0.576477	
1821.5	0.576782	
1822	0.575256	
1822.5	0.572815	
1823	0.571899	
1823.5	0.571899	
1824	0.570374	
1824.5	0.567932	
1825	0.567017	
1825.5	0.567322	
1826	0.566406	
1826.5	0.565796	
1827	0.563354	
1827.5	0.562439	
1828	0.561523	
1828.5	0.561218	
1829	0.557556	
1829.5	0.557861	
1830	0.557251	
1830.5	0.555725	
1831	0.553284	
1831.5	0.552063	
1832	0.552673	
1832.5	0.550537	
1833	0.548401	
1833.5	0.548401	
1834	0.546265	
1834.5	0.543518	
1835	0.542908	
1835.5	0.542297	
1836	0.541687	
1836.5	0.538635	
1837	0.53833	
1837.5	0.537415	
1838	0.537415	
1838.5	0.533752	
1839	0.533142	
1839.5	0.531921	
1840	0.528564	
1840.5	0.527954	
1841	0.527649	
1841.5	0.526123	
1842	0.524902	
1842.5	0.523071	
1843	0.522461	
1843.5	0.519714	
1844	0.519104	
1844.5	0.517273	
1845	0.517273	
1845.5	0.514526	
1846	0.513916	
1846.5	0.512085	
1847	0.509338	
1847.5	0.508728	
1848	0.508423	
1848.5	0.507813	
1849	0.505676	
1849.5	0.503235	
1850	0.502625	
1850.5	0.499878	
1851	0.498047	
1851.5	0.498047	
1852	0.49469	
1852.5	0.493164	
1853	0.492554	
1853.5	0.489807	
1854	0.488281	
1854.5	0.488892	
1855	0.487366	
1855.5	0.484314	
1856	0.483093	
1856.5	0.483398	
1857	0.479736	
1857.5	0.479431	
1858	0.4776	
1858.5	0.474854	
1859	0.473633	
1859.5	0.473328	
1860	0.470276	
1860.5	0.46875	
1861	0.467834	
1861.5	0.465698	
1862	0.464478	
1862.5	0.463257	
1863	0.460205	
1863.5	0.458679	
1864	0.45929	
1864.5	0.458679	
1865	0.455322	
1865.5	0.454407	
1866	0.453491	
1866.5	0.450745	
1867	0.449219	
1867.5	0.448608	
1868	0.446472	
1868.5	0.444641	
1869	0.444336	
1869.5	0.441284	
1870	0.439758	
1870.5	0.439148	
1871	0.436401	
1871.5	0.434265	
1872	0.43457	
1872.5	0.430908	
1873	0.429993	
1873.5	0.429688	
1874	0.426331	
1874.5	0.425415	
1875	0.424805	
1875.5	0.423889	
1876	0.421753	
1876.5	0.419922	
1877	0.419312	
1877.5	0.41687	
1878	0.415039	
1878.5	0.414429	
1879	0.411682	
1879.5	0.409851	
1880	0.410156	
1880.5	0.407104	
1881	0.405579	
1881.5	0.404053	
1882	0.401611	
1882.5	0.400696	
1883	0.399475	
1883.5	0.397949	
1884	0.395508	
1884.5	0.394897	
1885	0.392456	
1885.5	0.389709	
1886	0.389404	
1886.5	0.386658	
1887	0.385742	
1887.5	0.385132	
1888	0.385132	
1888.5	0.382385	
1889	0.380249	
1889.5	0.379944	
1890	0.377502	
1890.5	0.375977	
1891	0.375671	
1891.5	0.37323	
1892	0.370483	
1892.5	0.370789	
1893	0.367432	
1893.5	0.365601	
1894	0.365295	
1894.5	0.362549	
1895	0.361023	
1895.5	0.360107	
1896	0.357971	
1896.5	0.35614	
1897	0.354919	
1897.5	0.352783	
1898	0.350952	
1898.5	0.350342	
1899	0.347595	
1899.5	0.345764	
1900	0.345459	
1900.5	0.343018	
1901	0.340881	
1901.5	0.340576	
1902	0.338135	
1902.5	0.335999	
1903	0.335999	
1903.5	0.333557	
1904	0.331116	
1904.5	0.330811	
1905	0.328369	
1905.5	0.326233	
1906	0.325928	
1906.5	0.323486	
1907	0.322266	
1907.5	0.32135	
1908	0.318604	
1908.5	0.317078	
1909	0.316162	
1909.5	0.314026	
1910	0.31189	
1910.5	0.311279	
1911	0.308838	
1911.5	0.307007	
1912	0.307312	
1912.5	0.30365	
1913	0.301819	
1913.5	0.301208	
1914	0.299072	
1914.5	0.297241	
1915	0.296021	
1915.5	0.294495	
1916	0.292664	
1916.5	0.292053	
1917	0.289307	
1917.5	0.287476	
1918	0.286865	
1918.5	0.285034	
1919	0.283203	
1919.5	0.281982	
1920	0.279846	
1920.5	0.27832	
1921	0.276794	
1921.5	0.275269	
1922	0.273132	
1922.5	0.271606	
1923	0.270081	
1923.5	0.267639	
1924	0.267334	
1924.5	0.265808	
1925	0.263062	
1925.5	0.261536	
1926	0.260925	
1926.5	0.257568	
1927	0.257568	
1927.5	0.255127	
1928	0.253601	
1928.5	0.252686	
1929	0.250244	
1929.5	0.248718	
1930	0.247498	
1930.5	0.246277	
1931	0.243225	
1931.5	0.24231	
1932	0.240479	
1932.5	0.238342	
1933	0.237122	
1933.5	0.236206	
1934	0.233459	
1934.5	0.232544	
1935	0.231628	
1935.5	0.228577	
1936	0.227661	
1936.5	0.226746	
1937	0.224304	
1937.5	0.222778	
1938	0.221558	
1938.5	0.218811	
1939	0.217896	
1939.5	0.21637	
1940	0.214539	
1940.5	0.213318	
1941	0.211792	
1941.5	0.20874	
1942	0.207825	
1942.5	0.206299	
1943	0.204468	
1943.5	0.203247	
1944	0.201721	
1944.5	0.199585	
1945	0.198975	
1945.5	0.196838	
1946	0.194397	
1946.5	0.194092	
1947	0.192566	
1947.5	0.189819	
1948	0.188904	
1948.5	0.187378	
1949	0.184326	
1949.5	0.184326	
1950	0.18219	
1950.5	0.180054	
1951	0.178833	
1951.5	0.177612	
1952	0.175476	
1952.5	0.174255	
1953	0.172424	
1953.5	0.169067	
1954	0.168762	
1954.5	0.167542	
1955	0.1651	
1955.5	0.163574	
1956	0.163269	
1956.5	0.160522	
1957	0.158997	
1957.5	0.158691	
1958	0.155334	
1958.5	0.155029	
1959	0.153198	
1959.5	0.150452	
1960	0.149231	
1960.5	0.148621	
1961	0.145874	
1961.5	0.144348	
1962	0.143738	
1962.5	0.140686	
1963	0.139771	
1963.5	0.13855	
1964	0.136108	
1964.5	0.134888	
1965	0.133667	
1965.5	0.130005	
1966	0.130005	
1966.5	0.128479	
1967	0.126343	
1967.5	0.124512	
1968	0.124207	
1968.5	0.121155	
1969	0.119324	
1969.5	0.119019	
1970	0.115967	
1970.5	0.115356	
1971	0.114441	
1971.5	0.111389	
1972	0.109863	
1972.5	0.108948	
1973	0.106506	
1973.5	0.105591	
1974	0.104675	
1974.5	0.102539	
1975	0.100403	
1975.5	0.0994873	
1976	0.0964355	
1976.5	0.0952148	
1977	0.0915527	
1977.5	0.0912476	
1978	0.0897217	
1978.5	0.0869751	
1979	0.0854492	
1979.5	0.0842285	
1980	0.0817871	
1980.5	0.0805664	
1981	0.0805664	
1981.5	0.0772095	
1982	0.0762939	
1982.5	0.0759888	
1983	0.0732422	
1983.5	0.0720215	
1984	0.0714111	
1984.5	0.0680542	
1985	0.0662231	
1985.5	0.0656128	
1986	0.0634766	
1986.5	0.0613403	
1987	0.0619507	
1987.5	0.0579834	
1988	0.057373	
1988.5	0.0558472	
1989	0.0537109	
1989.5	0.0521851	
1990	0.0515747	
1990.5	0.0485229	
1991	0.0466919	
1991.5	0.0460815	
1992	0.0436401	
1992.5	0.0424194	
1993	0.0390625	
1993.5	0.0372314	
1994	0.0369263	
1994.5	0.0335693	
1995	0.0326538	
1995.5	0.0317383	
1996	0.0286865	
1996.5	0.0280762	
1997	0.0271606	
1997.5	0.0238037	
1998	0.0222778	
1998.5	0.0216675	
1999	0.0192261	
1999.5	0.0170898	
2000	0.0167847	
2000.5	0.0140381	
2001	0.0131226	
2001.5	0.012207	
2002	0.00946045	
2002.5	0.00793457	
2003	0.00732422	
2003.5	0.00427246	
2004	0.00274658	
2004.5	0.00213623	
2005	-0.000305176	
2005.5	-0.00244141	
2006	-0.00244141	
2006.5	-0.00488281	
2007	-0.00701904	
2007.5	-0.00762939	
2008	-0.0100708	
2008.5	-0.0115967	
2009	-0.012207	
2009.5	-0.0152588	
2010	-0.0167847	
2010.5	-0.0198364	
2011	-0.0216675	
2011.5	-0.022583	
2012	-0.0253296	
2012.5	-0.0262451	
2013	-0.0271606	
2013.5	-0.0292969	
2014	-0.0311279	
2014.5	-0.0317383	
2015	-0.0341797	
2015.5	-0.0366211	
2016	-0.0366211	
2016.5	-0.0396729	
2017	-0.0415039	
2017.5	-0.0411987	
2018	-0.0442505	
2018.5	-0.0466919	
2019	-0.0460815	
2019.5	-0.0491333	
2020	-0.0512695	
2020.5	-0.0512695	
2021	-0.0546265	
2021.5	-0.0561523	
2022	-0.0558472	
2022.5	-0.0588989	
2023	-0.0610352	
2023.5	-0.0613403	
2024	-0.0631714	
2024.5	-0.0662231	
2025	-0.065918	
2025.5	-0.0689697	
2026	-0.0704956	
2026.5	-0.0708008	
2027	-0.0708008	
2027.5	-0.0741577	
2028	-0.0753784	
2028.5	-0.0762939	
2029	-0.078125	
2029.5	-0.0799561	
2030	-0.0805664	
2030.5	-0.0830078	
2031	-0.0848389	
2031.5	-0.0854492	
2032	-0.0875854	
2032.5	-0.0897217	
2033	-0.0906372	
2033.5	-0.0924683	
2034	-0.0949097	
2034.5	-0.09552	
2035	-0.0973511	
2035.5	-0.0991821	
2036	-0.100403	
2036.5	-0.102844	
2037	-0.10437	
2037.5	-0.10437	
2038	-0.105591	
2038.5	-0.107727	
2039	-0.108948	
2039.5	-0.109863	
2040	-0.112305	
2040.5	-0.113831	
2041	-0.115356	
2041.5	-0.117188	
2042	-0.119019	
2042.5	-0.119629	
2043	-0.12207	
2043.5	-0.124207	
2044	-0.124207	
2044.5	-0.124512	
2045	-0.126953	
2045.5	-0.129395	
2046	-0.13031	
2046.5	-0.132751	
2047	-0.133972	
2047.5	-0.134583	
2048	-0.134277	
2048.5	-0.137024	
2049	-0.13916	
2049.5	-0.139465	
2050	-0.141602	
2050.5	-0.144653	
2051	-0.143738	
2051.5	-0.14679	
2052	-0.149231	
2052.5	-0.149231	
2053	-0.149536	
2053.5	-0.151367	
2054	-0.153503	
2054.5	-0.154114	
2055	-0.155945	
2055.5	-0.157776	
2056	-0.158997	
2056.5	-0.159912	
2057	-0.160828	
2057.5	-0.163574	
2058	-0.164185	
2058.5	-0.16571	
2059	-0.168762	
2059.5	-0.169373	
2060	-0.169678	
2060.5	-0.171204	
2061	-0.17334	
2061.5	-0.17395	
2062	-0.175781	
2062.5	-0.178528	
2063	-0.178528	
2063.5	-0.178833	
2064	-0.180664	
2064.5	-0.18219	
2065	-0.183716	
2065.5	-0.185242	
2066	-0.187683	
2066.5	-0.188599	
2067	-0.188904	
2067.5	-0.19043	
2068	-0.192566	
2068.5	-0.193787	
2069	-0.194702	
2069.5	-0.197144	
2070	-0.198364	
2070.5	-0.198669	
2071	-0.19989	
2071.5	-0.203247	
2072	-0.203552	
2072.5	-0.205383	
2073	-0.207214	
2073.5	-0.208435	
2074	-0.208435	
2074.5	-0.209351	
2075	-0.212708	
2075.5	-0.213318	
2076	-0.214539	
2076.5	-0.216675	
2077	-0.217896	
2077.5	-0.21759	
2078	-0.219727	
2078.5	-0.221863	
2079	-0.223083	
2079.5	-0.223389	
2080	-0.224609	
2080.5	-0.226135	
2081	-0.228271	
2081.5	-0.229187	
2082	-0.231934	
2082.5	-0.233154	
2083	-0.233765	
2083.5	-0.23407	
2084	-0.237732	
2084.5	-0.237732	
2085	-0.238647	
2085.5	-0.239258	
2086	-0.241699	
2086.5	-0.24292	
2087	-0.243835	
2087.5	-0.246887	
2088	-0.246887	
2088.5	-0.248718	
2089	-0.248413	
2089.5	-0.251465	
2090	-0.252991	
2090.5	-0.252686	
2091	-0.253906	
2091.5	-0.256348	
2092	-0.257874	
2092.5	-0.257874	
2093	-0.257874	
2093.5	-0.260925	
2094	-0.262146	
2094.5	-0.261841	
2095	-0.263367	
2095.5	-0.266113	
2096	-0.266418	
2096.5	-0.267639	
2097	-0.268555	
2097.5	-0.270996	
2098	-0.272217	
2098.5	-0.273132	
2099	-0.273132	
2099.5	-0.275879	
2100	-0.276794	
2100.5	-0.27771	
2101	-0.27832	
2101.5	-0.280762	
2102	-0.281677	
2102.5	-0.281982	
2103	-0.282288	
2103.5	-0.28595	
2104	-0.28717	
2104.5	-0.28717	
2105	-0.287781	
2105.5	-0.290527	
2106	-0.291748	
2106.5	-0.292664	
2107	-0.292664	
2107.5	-0.2948	
2108	-0.296631	
2108.5	-0.296631	
2109	-0.296936	
2109.5	-0.300598	
2110	-0.301819	
2110.5	-0.302124	
2111	-0.302429	
2111.5	-0.304871	
2112	-0.307007	
2112.5	-0.306396	
2113	-0.307007	
2113.5	-0.310364	
2114	-0.311279	
2114.5	-0.311584	
2115	-0.311584	
2115.5	-0.315247	
2116	-0.315857	
2116.5	-0.317078	
2117	-0.316772	
2117.5	-0.320129	
2118	-0.32074	
2118.5	-0.321045	
2119	-0.321655	
2119.5	-0.325012	
2120	-0.325928	
2120.5	-0.327148	
2121	-0.326233	
2121.5	-0.329895	
2122	-0.330811	
2122.5	-0.331421	
2123	-0.331421	
2123.5	-0.332031	
2124	-0.334778	
2124.5	-0.335693	
2125	-0.336609	
2125.5	-0.336304	
2126	-0.339355	
2126.5	-0.340576	
2127	-0.340881	
2127.5	-0.341797	
2128	-0.343933	
2128.5	-0.345459	
2129	-0.346069	
2129.5	-0.346985	
2130	-0.349121	
2130.5	-0.350647	
2131	-0.350952	
2131.5	-0.351257	
2132	-0.353699	
2132.5	-0.35553	
2133	-0.35614	
2133.5	-0.35675	
2134	-0.359192	
2134.5	-0.360413	
2135	-0.361023	
2135.5	-0.360718	
2136	-0.361023	
2136.5	-0.36377	
2137	-0.365295	
2137.5	-0.365295	
2138	-0.366516	
2138.5	-0.368347	
2139	-0.370483	
2139.5	-0.371399	
2140	-0.370483	
2140.5	-0.372925	
2141	-0.375366	
2141.5	-0.375671	
2142	-0.375061	
2142.5	-0.379028	
2143	-0.379639	
2143.5	-0.379944	
2144	-0.380249	
2144.5	-0.383301	
2145	-0.384827	
2145.5	-0.385437	
2146	-0.385132	
2146.5	-0.388184	
2147	-0.389404	
2147.5	-0.390625	
2148	-0.389709	
2148.5	-0.393066	
2149	-0.394592	
2149.5	-0.395203	
2150	-0.394897	
2150.5	-0.397644	
2151	-0.39917	
2151.5	-0.400085	
2152	-0.39917	
2152.5	-0.402832	
2153	-0.404663	
2153.5	-0.404968	
2154	-0.405273	
2154.5	-0.407104	
2155	-0.409546	
2155.5	-0.409851	
2156	-0.410156	
2156.5	-0.410461	
2157	-0.411987	
2157.5	-0.414734	
2158	-0.414124	
2158.5	-0.414734	
2159	-0.417175	
2159.5	-0.419312	
2160	-0.419312	
2160.5	-0.419312	
2161	-0.421753	
2161.5	-0.424194	
2162	-0.4245	
2162.5	-0.424194	
2163	-0.426941	
2163.5	-0.428467	
2164	-0.429077	
2164.5	-0.429382	
2165	-0.431519	
2165.5	-0.433655	
2166	-0.43396	
2166.5	-0.434875	
2167	-0.437012	
2167.5	-0.438843	
2168	-0.439453	
2168.5	-0.440063	
2169	-0.441589	
2169.5	-0.44342	
2170	-0.444946	
2170.5	-0.444641	
2171	-0.446777	
2171.5	-0.448303	
2172	-0.448914	
2172.5	-0.449219	
2173	-0.45166	
2173.5	-0.453491	
2174	-0.454407	
2174.5	-0.453186	
2175	-0.455933	
2175.5	-0.458984	
2176	-0.458679	
2176.5	-0.45929	
2177	-0.461426	
2177.5	-0.463257	
2178	-0.463562	
2178.5	-0.465088	
2179	-0.465698	
2179.5	-0.46814	
2180	-0.46875	
2180.5	-0.468445	
2181	-0.470276	
2181.5	-0.472107	
2182	-0.473633	
2182.5	-0.473328	
2183	-0.475464	
2183.5	-0.4776	
2184	-0.478516	
2184.5	-0.479126	
2185	-0.480347	
2185.5	-0.482788	
2186	-0.483704	
2186.5	-0.483398	
2187	-0.484924	
2187.5	-0.487976	
2188	-0.488586	
2188.5	-0.487976	
2189	-0.489807	
2189.5	-0.492554	
2190	-0.493164	
2190.5	-0.493164	
2191	-0.4953	
2191.5	-0.497437	
2192	-0.498962	
2192.5	-0.498352	
2193	-0.500183	
2193.5	-0.502625	
2194	-0.50293	
2194.5	-0.503235	
2195	-0.505066	
2195.5	-0.507202	
2196	-0.507813	
2196.5	-0.508423	
2197	-0.509644	
2197.5	-0.512085	
2198	-0.51239	
2198.5	-0.512695	
2199	-0.513306	
2199.5	-0.514221	
2200	-0.516357	
2200.5	-0.517883	
2201	-0.517883	
2201.5	-0.519409	
2202	-0.521851	
2202.5	-0.522766	
2203	-0.523071	
2203.5	-0.523987	
2204	-0.526428	
2204.5	-0.527649	
2205	-0.527954	
2205.5	-0.529175	
2206	-0.531006	
2206.5	-0.531921	
2207	-0.532837	
2207.5	-0.532532	
2208	-0.533447	
2208.5	-0.536194	
2209	-0.536804	
2209.5	-0.537415	
2210	-0.538635	
2210.5	-0.540771	
2211	-0.542603	
2211.5	-0.542603	
2212	-0.542297	
2212.5	-0.543823	
2213	-0.546265	
2213.5	-0.547485	
2214	-0.547791	
2214.5	-0.548706	
2215	-0.548706	
2215.5	-0.551453	
2216	-0.553284	
2216.5	-0.553284	
2217	-0.552368	
2217.5	-0.553589	
2218	-0.555725	
2218.5	-0.557861	
2219	-0.557861	
2219.5	-0.557556	
2220	-0.558167	
2220.5	-0.560913	
2221	-0.562439	
2221.5	-0.562439	
2222	-0.561829	
2222.5	-0.563354	
2223	-0.565491	
2223.5	-0.566406	
2224	-0.567627	
2224.5	-0.567627	
2225	-0.567932	
2225.5	-0.567932	
2226	-0.570679	
2226.5	-0.571289	
2227	-0.572815	
2227.5	-0.572815	
2228	-0.572815	
2228.5	-0.57312	
2229	-0.575562	
2229.5	-0.576782	
2230	-0.576172	
2230.5	-0.577393	
2231	-0.576172	
2231.5	-0.576172	
2232	-0.577698	
2232.5	-0.58075	
2233	-0.581665	
2233.5	-0.582275	
2234	-0.582275	
2234.5	-0.581665	
2235	-0.58197	
2235.5	-0.582275	
2236	-0.582581	
2236.5	-0.582581	
2237	-0.585632	
2237.5	-0.586853	
2238	-0.587769	
2238.5	-0.587158	
2239	-0.587769	
2239.5	-0.587769	
2240	-0.586548	
2240.5	-0.587158	
2241	-0.587158	
2241.5	-0.585938	
2242	-0.587158	
2242.5	-0.590515	
2243	-0.591431	
2243.5	-0.592346	
2244	-0.592041	
2244.5	-0.592041	
2245	-0.591736	
2245.5	-0.592041	
2246	-0.592651	
2246.5	-0.592041	
2247	-0.592041	
2247.5	-0.592346	
2248	-0.591431	
2248.5	-0.592041	
2249	-0.592041	
2249.5	-0.591736	
2250	-0.591431	
2250.5	-0.591736	
2251	-0.592041	
2251.5	-0.592346	
2252	-0.592346	
2252.5	-0.591736	
2253	-0.592346	
2253.5	-0.591431	
2254	-0.592346	
2254.5	-0.592346	
2255	-0.591125	
2255.5	-0.591736	
2256	-0.591736	
2256.5	-0.588684	
2257	-0.587463	
2257.5	-0.586853	
2258	-0.586853	
2258.5	-0.586548	
2259	-0.586853	
2259.5	-0.587769	
2260	-0.587158	
2260.5	-0.586853	
2261	-0.586853	
2261.5	-0.584412	
2262	-0.582886	
2262.5	-0.582581	
2263	-0.582581	
2263.5	-0.58197	
2264	-0.582275	
2264.5	-0.581665	
2265	-0.580139	
2265.5	-0.577698	
2266	-0.577698	
2266.5	-0.576477	
2267	-0.577393	
2267.5	-0.574646	
2268	-0.572205	
2268.5	-0.571594	
2269	-0.57251	
2269.5	-0.57251	
2270	-0.569763	
2270.5	-0.567627	
2271	-0.567322	
2271.5	-0.567017	
2272	-0.564575	
2272.5	-0.562744	
2273	-0.563049	
2273.5	-0.562439	
2274	-0.559692	
2274.5	-0.558167	
2275	-0.557861	
2275.5	-0.55481	
2276	-0.552979	
2276.5	-0.552368	
2277	-0.550537	
2277.5	-0.548706	
2278	-0.548096	
2278.5	-0.545349	
2279	-0.543823	
2279.5	-0.541992	
2280	-0.539856	
2280.5	-0.538025	
2281	-0.537109	
2281.5	-0.535278	
2282	-0.533142	
2282.5	-0.53009	
2283	-0.527954	
2283.5	-0.527344	
2284	-0.525513	
2284.5	-0.523987	
2285	-0.520325	
2285.5	-0.517578	
2286	-0.515747	
2286.5	-0.513611	
2287	-0.510559	
2287.5	-0.508728	
2288	-0.505371	
2288.5	-0.50415	
2289	-0.501404	
2289.5	-0.499268	
2290	-0.496826	
2290.5	-0.49408	
2291	-0.491638	
2291.5	-0.488892	
2292	-0.486145	
2292.5	-0.484314	
2293	-0.481262	
2293.5	-0.480042	
2294	-0.4776	
2294.5	-0.474548	
2295	-0.471191	
2295.5	-0.46814	
2296	-0.464783	
2296.5	-0.462036	
2297	-0.460205	
2297.5	-0.457458	
2298	-0.453186	
2298.5	-0.450745	
2299	-0.447998	
2299.5	-0.445251	
2300	-0.44281	
2300.5	-0.438538	
2301	-0.435486	
2301.5	-0.432739	
2302	-0.428467	
2302.5	-0.42511	
2303	-0.422974	
2303.5	-0.418396	
2304	-0.413818	
2304.5	-0.411072	
2305	-0.40802	
2305.5	-0.404053	
2306	-0.401306	
2306.5	-0.398865	
2307	-0.393982	
2307.5	-0.389404	
2308	-0.386353	
2308.5	-0.383911	
2309	-0.379639	
2309.5	-0.375366	
2310	-0.371094	
2310.5	-0.369263	
2311	-0.36499	
2311.5	-0.360413	
2312	-0.357056	
2312.5	-0.354309	
2313	-0.350952	
2313.5	-0.345764	
2314	-0.341492	
2314.5	-0.335083	
2315	-0.332336	
2315.5	-0.329895	
2316	-0.325623	
2316.5	-0.32135	
2317	-0.316467	
2317.5	-0.310974	
2318	-0.308533	
2318.5	-0.305481	
2319	-0.301514	
2319.5	-0.296936	
2320	-0.292053	
2320.5	-0.286865	
2321	-0.282593	
2321.5	-0.2771	
2322	-0.272522	
2322.5	-0.26886	
2323	-0.266113	
2323.5	-0.261841	
2324	-0.257568	
2324.5	-0.252686	
2325	-0.248413	
2325.5	-0.24292	
2326	-0.238037	
2326.5	-0.233765	
2327	-0.228577	
2327.5	-0.223389	
2328	-0.218201	
2328.5	-0.213013	
2329	-0.20874	
2329.5	-0.205078	
2330	-0.202637	
2330.5	-0.198364	
2331	-0.193481	
2331.5	-0.189209	
2332	-0.184631	
2332.5	-0.179749	
2333	-0.174255	
2333.5	-0.169678	
2334	-0.16449	
2334.5	-0.158997	
2335	-0.155029	
2335.5	-0.149536	
2336	-0.144958	
2336.5	-0.140381	
2337	-0.135193	
2337.5	-0.13031	
2338	-0.125732	
2338.5	-0.120239	
2339	-0.115356	
2339.5	-0.110779	
2340	-0.105896	
2340.5	-0.100403	
2341	-0.0961304	
2341.5	-0.0909424	
2342	-0.0860596	
2342.5	-0.0814819	
2343	-0.0765991	
2343.5	-0.0680542	
2344	-0.0616455	
2344.5	-0.057373	
2345	-0.0524902	
2345.5	-0.0469971	
2346	-0.0424194	
2346.5	-0.0378418	
2347	-0.0332642	
2347.5	-0.0274658	
2348	-0.0231934	
2348.5	-0.0183105	
2349	-0.0131226	
2349.5	-0.00793457	
2350	-0.00427246	
2350.5	0.0012207	
2351	0.00610352	
2351.5	0.0109863	
2352	0.015564	
2352.5	0.0204468	
2353	0.0262451	
2353.5	0.0308228	
2354	0.0357056	
2354.5	0.0402832	
2355	0.0454712	
2355.5	0.0537109	
2356	0.0588989	
2356.5	0.0653076	
2357	0.0698853	
2357.5	0.0741577	
2358	0.0799561	
2358.5	0.0836182	
2359	0.0888062	
2359.5	0.0939941	
2360	0.0982666	
2360.5	0.10437	
2361	0.108337	
2361.5	0.11322	
2362	0.118408	
2362.5	0.123596	
2363	0.127563	
2363.5	0.132751	
2364	0.137024	
2364.5	0.142822	
2365	0.1474	
2365.5	0.152588	
2366	0.157776	
2366.5	0.162659	
2367	0.166626	
2367.5	0.171814	
2368	0.177307	
2368.5	0.18158	
2369	0.186462	
2369.5	0.191956	
2370	0.196533	
2370.5	0.201416	
2371	0.206604	
2371.5	0.211792	
2372	0.21637	
2372.5	0.221558	
2373	0.22522	
2373.5	0.231628	
2374	0.235596	
2374.5	0.240173	
2375	0.245361	
2375.5	0.249939	
2376	0.254822	
2376.5	0.26001	
2377	0.265198	
2377.5	0.269775	
2378	0.275269	
2378.5	0.280151	
2379	0.285034	
2379.5	0.289307	
2380	0.294495	
2380.5	0.299683	
2381	0.303955	
2381.5	0.308533	
2382	0.313416	
2382.5	0.317993	
2383	0.323486	
2383.5	0.328369	
2384	0.333557	
2384.5	0.33783	
2385	0.342712	
2385.5	0.348206	
2386	0.352783	
2386.5	0.355225	
2387	0.358276	
2387.5	0.362854	
2388	0.368042	
2388.5	0.37262	
2389	0.377197	
2389.5	0.382996	
2390	0.386658	
2390.5	0.392151	
2391	0.397034	
2391.5	0.401917	
2392	0.403442	
2392.5	0.407715	
2393	0.411987	
2393.5	0.41687	
2394	0.421448	
2394.5	0.426331	
2395	0.432129	
2395.5	0.436707	
2396	0.438232	
2396.5	0.441895	
2397	0.446167	
2397.5	0.450134	
2398	0.455322	
2398.5	0.461426	
2399	0.463562	
2399.5	0.466309	
2400	0.470886	
2400.5	0.475464	
2401	0.480652	
2401.5	0.485535	
2402	0.487976	
2402.5	0.490417	
2403	0.494385	
2403.5	0.500183	
2404	0.504761	
2404.5	0.507202	
2405	0.510254	
2405.5	0.515137	
2406	0.519104	
2406.5	0.524597	
2407	0.526733	
2407.5	0.529785	
2408	0.534058	
2408.5	0.539856	
2409	0.541992	
2409.5	0.544128	
2410	0.549011	
2410.5	0.553284	
2411	0.555725	
2411.5	0.558777	
2412	0.56366	
2412.5	0.568237	
2413	0.571289	
2413.5	0.574036	
2414	0.577698	
2414.5	0.58075	
2415	0.583801	
2415.5	0.588074	
2416	0.59082	
2416.5	0.593872	
2417	0.597534	
2417.5	0.602417	
2418	0.605774	
2418.5	0.60791	
2419	0.613098	
2419.5	0.614929	
2420	0.617981	
2420.5	0.622559	
2421	0.625	
2421.5	0.627441	
2422	0.632019	
2422.5	0.634766	
2423	0.637512	
2423.5	0.639343	
2424	0.6427	
2424.5	0.646057	
2425	0.65033	
2425.5	0.652771	
2426	0.656128	
2426.5	0.65918	
2427	0.662231	
2427.5	0.664673	
2428	0.667114	
2428.5	0.670776	
2429	0.674438	
2429.5	0.67688	
2430	0.679321	
2430.5	0.681763	
2431	0.68573	
2431.5	0.688782	
2432	0.690918	
2432.5	0.693665	
2433	0.696106	
2433.5	0.698242	
2434	0.701294	
2434.5	0.704041	
2435	0.705872	
2435.5	0.710449	
2436	0.713196	
2436.5	0.715942	
2437	0.718689	
2437.5	0.72052	
2438	0.723572	
2438.5	0.726318	
2439	0.727844	
2439.5	0.72998	
2440	0.733337	
2440.5	0.736084	
2441	0.738525	
2441.5	0.740051	
2442	0.743408	
2442.5	0.745544	
2443	0.747681	
2443.5	0.749817	
2444	0.752563	
2444.5	0.753479	
2445	0.755615	
2445.5	0.757446	
2446	0.759888	
2446.5	0.762634	
2447	0.764771	
2447.5	0.767212	
2448	0.768433	
2448.5	0.770264	
2449	0.772705	
2449.5	0.774841	
2450	0.777283	
2450.5	0.780029	
2451	0.782471	
2451.5	0.783386	
2452	0.784302	
2452.5	0.787048	
2453	0.788879	
2453.5	0.792236	
2454	0.794373	
2454.5	0.796814	
2455	0.79834	
2455.5	0.798645	
2456	0.801086	
2456.5	0.803223	
2457	0.803528	
2457.5	0.80658	
2458	0.8078	
2458.5	0.809326	
2459	0.811768	
2459.5	0.812988	
2460	0.813599	
2460.5	0.81665	
2461	0.817261	
2461.5	0.818176	
2462	0.818481	
2462.5	0.821533	
2463	0.823364	
2463.5	0.82428	
2464	0.826416	
2464.5	0.827637	
2465	0.827942	
2465.5	0.828247	
2466	0.830994	
2466.5	0.832214	
2467	0.832825	
2467.5	0.83374	
2468	0.836182	
2468.5	0.837402	
2469	0.837402	
2469.5	0.837708	
2470	0.838623	
2470.5	0.84137	
2471	0.842285	
2471.5	0.842285	
2472	0.842285	
2472.5	0.843201	
2473	0.845947	
2473.5	0.846863	
2474	0.846863	
2474.5	0.846863	
2475	0.847168	
2475.5	0.847778	
2476	0.850525	
2476.5	0.85144	
2477	0.851746	
2477.5	0.851746	
2478	0.852051	
2478.5	0.852356	
2479	0.851746	
2479.5	0.852966	
2480	0.855103	
2480.5	0.857239	
2481	0.857239	
2481.5	0.856934	
2482	0.856323	
2482.5	0.856934	
2483	0.857239	
2483.5	0.856323	
2484	0.857239	
2484.5	0.856628	
2485	0.856628	
2485.5	0.857239	
2486	0.859985	
2486.5	0.861206	
2487	0.861206	
2487.5	0.861816	
2488	0.862122	
2488.5	0.862427	
2489	0.861511	
2489.5	0.861816	
2490	0.862732	
2490.5	0.862427	
2491	0.861816	
2491.5	0.862122	
2492	0.861816	
2492.5	0.861816	
2493	0.861511	
2493.5	0.861816	
2494	0.861511	
2494.5	0.861816	
2495	0.862122	
2495.5	0.861816	
2496	0.861511	
2496.5	0.862122	
2497	0.861816	
2497.5	0.861816	
2498	0.858765	
2498.5	0.857544	
2499	0.857239	
2499.5	0.856934	
2500	0.856934	
2500.5	0.856628	
2501	0.857544	
2501.5	0.856628	
2502	0.856628	
2502.5	0.856628	
2503	0.857239	
2503.5	0.856628	
2504	0.856323	
2504.5	0.853577	
2505	0.852661	
2505.5	0.852356	
2506	0.85144	
2506.5	0.852661	
2507	0.852051	
2507.5	0.85144	
2508	0.852356	
2508.5	0.848694	
2509	0.847473	
2509.5	0.847168	
2510	0.846558	
2510.5	0.846863	
2511	0.846863	
2511.5	0.846863	
2512	0.844727	
2512.5	0.842896	
2513	0.84259	
2513.5	0.842285	
2514	0.84259	
2514.5	0.84198	
2515	0.840454	
2515.5	0.838318	
2516	0.837402	
2516.5	0.837708	
2517	0.837097	
2517.5	0.835266	
2518	0.83313	
2518.5	0.83252	
2519	0.83313	
2519.5	0.832214	
2520	0.830078	
2520.5	0.827942	
2521	0.827942	
2521.5	0.827942	
2522	0.8255	
2522.5	0.823364	
2523	0.823059	
2523.5	0.822754	
2524	0.822754	
2524.5	0.820313	
2525	0.818481	
2525.5	0.817566	
2526	0.818176	
2526.5	0.815125	
2527	0.813599	
2527.5	0.812988	
2528	0.812988	
2528.5	0.810852	
2529	0.808411	
2529.5	0.806885	
2530	0.805054	
2530.5	0.803528	
2531	0.802917	
2531.5	0.802612	
2532	0.800476	
2532.5	0.798645	
2533	0.798035	
2533.5	0.797729	
2534	0.794983	
2534.5	0.794067	
2535	0.792847	
2535.5	0.791016	
2536	0.789185	
2536.5	0.788879	
2537	0.788574	
2537.5	0.785522	
2538	0.783997	
2538.5	0.783386	
2539	0.780945	
2539.5	0.779114	
2540	0.779114	
2540.5	0.775757	
2541	0.774841	
2541.5	0.773621	
2542	0.771484	
2542.5	0.768738	
2543	0.769043	
2543.5	0.766602	
2544	0.764465	
2544.5	0.763245	
2545	0.763245	
2545.5	0.761414	
2546	0.759888	
2546.5	0.758667	
2547	0.756836	
2547.5	0.754089	
2548	0.754089	
2548.5	0.752258	
2549	0.749817	
2549.5	0.748596	
2550	0.74707	
2550.5	0.744629	
2551	0.742188	
2551.5	0.739136	
2552	0.739441	
2552.5	0.736694	
2553	0.734863	
2553.5	0.733948	
2554	0.732117	
2554.5	0.729675	
2555	0.729675	
2555.5	0.728149	
2556	0.724792	
2556.5	0.724182	
2557	0.722656	
2557.5	0.720215	
2558	0.719299	
2558.5	0.718079	
2559	0.715637	
2559.5	0.712891	
2560	0.709534	
2560.5	0.709534	
2561	0.708618	
2561.5	0.704956	
2562	0.704956	
2562.5	0.70282	
2563	0.700378	
2563.5	0.699768	
2564	0.697937	
2564.5	0.695801	
2565	0.693665	
2565.5	0.691528	
2566	0.690002	
2566.5	0.688171	
2567	0.68573	
2567.5	0.684814	
2568	0.683289	
2568.5	0.681152	
2569	0.679016	
2569.5	0.67627	
2570	0.675354	
2570.5	0.673828	
2571	0.671082	
2571.5	0.669861	
2572	0.66925	
2572.5	0.665894	
2573	0.664063	
2573.5	0.661316	
2574	0.6604	
2574.5	0.65918	
2575	0.656738	
2575.5	0.655212	
2576	0.653381	
2576.5	0.65155	
2577	0.649109	
2577.5	0.646362	
2578	0.645752	
2578.5	0.643921	
2579	0.641479	
2579.5	0.641174	
2580	0.639038	
2580.5	0.636292	
2581	0.634766	
2581.5	0.631714	
2582	0.631409	
2582.5	0.629578	
2583	0.626526	
2583.5	0.626526	
2584	0.624695	
2584.5	0.621643	
2585	0.620117	
2585.5	0.617065	
2586	0.61676	
2586.5	0.615234	
2587	0.612488	
2587.5	0.610352	
2588	0.606689	
2588.5	0.606995	
2589	0.605469	
2589.5	0.602112	
2590	0.601196	
2590.5	0.599976	
2591	0.597534	
2591.5	0.596924	
2592	0.595398	
2592.5	0.592346	
2593	0.59082	
2593.5	0.588379	
2594	0.587158	
2594.5	0.585632	
2595	0.583191	
2595.5	0.581665	
2596	0.58136	
2596.5	0.578308	
2597	0.576477	
2597.5	0.57312	
2598	0.571899	
2598.5	0.570984	
2599	0.567932	
2599.5	0.567322	
2600	0.565796	
2600.5	0.56366	
2601	0.561523	
2601.5	0.561829	
2602	0.558167	
2602.5	0.556641	
2603	0.553589	
2603.5	0.552063	
2604	0.551758	
2604.5	0.548706	
2605	0.548096	
2605.5	0.546875	
2606	0.544434	
2606.5	0.542603	
2607	0.541992	
2607.5	0.538635	
2608	0.53772	
2608.5	0.534058	
2609	0.533142	
2609.5	0.531616	
2610	0.529175	
2610.5	0.52887	
2611	0.527039	
2611.5	0.524292	
2612	0.523682	
2612.5	0.522156	
2613	0.52002	
2613.5	0.518494	
2614	0.514221	
2614.5	0.513611	
2615	0.512695	
2615.5	0.509949	
2616	0.508423	
2616.5	0.507507	
2617	0.505066	
2617.5	0.50354	
2618	0.502625	
2618.5	0.499878	
2619	0.498047	
2619.5	0.498352	
2620	0.495605	
2620.5	0.493164	
2621	0.493469	
2621.5	0.490417	
2622	0.489197	
2622.5	0.485535	
2623	0.483704	
2623.5	0.482788	
2624	0.480347	
2624.5	0.479126	
2625	0.478516	
2625.5	0.475464	
2626	0.473938	
2626.5	0.472717	
2627	0.470581	
2627.5	0.46875	
2628	0.468445	
2628.5	0.465698	
2629	0.464478	
2629.5	0.463867	
2630	0.46051	
2630.5	0.45929	
2631	0.456238	
2631.5	0.454102	
2632	0.453796	
2632.5	0.45166	
2633	0.449219	
2633.5	0.449219	
2634	0.446167	
2634.5	0.444641	
2635	0.444031	
2635.5	0.440979	
2636	0.439758	
2636.5	0.438538	
2637	0.436401	
2637.5	0.43457	
2638	0.431824	
2638.5	0.429993	
2639	0.429382	
2639.5	0.426941	
2640	0.42511	
2640.5	0.424805	
2641	0.421143	
2641.5	0.420227	
2642	0.419922	
2642.5	0.41687	
2643	0.415039	
2643.5	0.414124	
2644	0.411682	
2644.5	0.409546	
2645	0.409851	
2645.5	0.406799	
2646	0.405579	
2646.5	0.402222	
2647	0.401306	
2647.5	0.400085	
2648	0.397034	
2648.5	0.395203	
2649	0.394287	
2649.5	0.392456	
2650	0.39032	
2650.5	0.389709	
2651	0.387878	
2651.5	0.385742	
2652	0.384827	
2652.5	0.38269	
2653	0.380249	
2653.5	0.379333	
2654	0.376892	
2654.5	0.375977	
2655	0.37262	
2655.5	0.370789	
2656	0.370178	
2656.5	0.368042	
2657	0.365601	
2657.5	0.365601	
2658	0.363159	
2658.5	0.360107	
2659	0.360718	
2659.5	0.357971	
2660	0.355835	
2660.5	0.355225	
2661	0.353394	
2661.5	0.350952	
2662	0.348511	
2662.5	0.346069	
2663	0.345764	
2663.5	0.343018	
2664	0.340881	
2664.5	0.340881	
2665	0.33844	
2665.5	0.336304	
2666	0.335999	
2666.5	0.333557	
2667	0.332336	
2667.5	0.331116	
2668	0.329285	
2668.5	0.326538	
2669	0.324402	
2669.5	0.32196	
2670	0.32135	
2670.5	0.318298	
2671	0.316467	
2671.5	0.316162	
2672	0.314026	
2672.5	0.311279	
2673	0.310974	
2673.5	0.309448	
2674	0.306702	
2674.5	0.304565	
2675	0.302124	
2675.5	0.301208	
2676	0.300293	
2676.5	0.296936	
2677	0.296326	
2677.5	0.294495	
2678	0.292969	
2678.5	0.292053	
2679	0.289307	
2679.5	0.286865	
2680	0.285034	
2680.5	0.282288	
2681	0.281982	
2681.5	0.279541	
2682	0.278015	
2682.5	0.276184	
2683	0.274658	
2683.5	0.272522	
2684	0.272217	
2684.5	0.270386	
2685	0.267639	
2685.5	0.265503	
2686	0.263062	
2686.5	0.262451	
2687	0.26062	
2687.5	0.257874	
2688	0.257263	
2688.5	0.255737	
2689	0.252991	
2689.5	0.25238	
2690	0.250244	
2690.5	0.248108	
2691	0.246277	
2691.5	0.24353	
2692	0.242615	
2692.5	0.241089	
2693	0.238953	
2693.5	0.237122	
2694	0.236511	
2694.5	0.233765	
2695	0.232849	
2695.5	0.231018	
2696	0.228577	
2696.5	0.226135	
2697	0.223694	
2697.5	0.222778	
2698	0.221558	
2698.5	0.219421	
2699	0.217896	
2699.5	0.21637	
2700	0.214233	
2700.5	0.212708	
2701	0.209045	
2701.5	0.208435	
2702	0.206909	
2702.5	0.204163	
2703	0.202942	
2703.5	0.202026	
2704	0.19928	
2704.5	0.197144	
2705	0.194397	
2705.5	0.192871	
2706	0.19165	
2706.5	0.189209	
2707	0.188293	
2707.5	0.187988	
2708	0.185242	
2708.5	0.183105	
2709	0.179749	
2709.5	0.179443	
2710	0.177307	
2710.5	0.175171	
2711	0.173645	
2711.5	0.172424	
2712	0.170288	
2712.5	0.167542	
2713	0.165405	
2713.5	0.163879	
2714	0.163269	
2714.5	0.160217	
2715	0.158997	
2715.5	0.158386	
2716	0.155334	
2716.5	0.153503	
2717	0.150757	
2717.5	0.149536	
2718	0.148621	
2718.5	0.145874	
2719	0.144653	
2719.5	0.143433	
2720	0.140991	
2720.5	0.13855	
2721	0.135803	
2721.5	0.134888	
2722	0.134277	
2722.5	0.13092	
2723	0.130005	
2723.5	0.129089	
2724	0.126343	
2724.5	0.123596	
2725	0.12146	
2725.5	0.119934	
2726	0.119019	
2726.5	0.115967	
2727	0.115356	
2727.5	0.114136	
2728	0.111084	
2728.5	0.109863	
2729	0.106506	
2729.5	0.105591	
2730	0.104065	
2730.5	0.101929	
2731	0.100403	
2731.5	0.0970459	
2732	0.0958252	
2732.5	0.0946045	
2733	0.0918579	
2733.5	0.0900269	
2734	0.0897217	
2734.5	0.0863647	
2735	0.0848389	
2735.5	0.0814819	
2736	0.0808716	
2736.5	0.0799561	
2737	0.078125	
2737.5	0.0765991	
2738	0.0759888	
2738.5	0.0732422	
2739	0.0714111	
2739.5	0.067749	
2740	0.0665283	
2740.5	0.0662231	
2741	0.0628662	
2741.5	0.0619507	
2742	0.0610352	
2742.5	0.0585938	
2743	0.0564575	
2743.5	0.0537109	
2744	0.0521851	
2744.5	0.0509644	
2745	0.0488281	
2745.5	0.0473022	
2746	0.0442505	
2746.5	0.0424194	
2747	0.0411987	
2747.5	0.0390625	
2748	0.0372314	
2748.5	0.0366211	
2749	0.0332642	
2749.5	0.0326538	
2750	0.0283813	
2750.5	0.0274658	
2751	0.0271606	
2751.5	0.0241089	
2752	0.0219727	
2752.5	0.0222778	
2753	0.0186157	
2753.5	0.017395	
2754	0.0137329	
2754.5	0.0125122	
2755	0.0119019	
2755.5	0.0088501	
2756	0.00793457	
2756.5	0.00732422	
2757	0.00457764	
2757.5	0.00305176	
2758	-0.000305176	
2758.5	-0.00213623	
2759	-0.00244141	
2759.5	-0.00518799	
2760	-0.00671387	
2760.5	-0.00762939	
2761	-0.010376	
2761.5	-0.0119019	
2762	-0.0149536	
2762.5	-0.0164795	
2763	-0.0170898	
2763.5	-0.0204468	
2764	-0.0216675	
2764.5	-0.0222778	
2765	-0.0247192	
2765.5	-0.0262451	
2766	-0.0292969	
2766.5	-0.0311279	
2767	-0.0317383	
2767.5	-0.0341797	
2768	-0.0363159	
2768.5	-0.0372314	
2769	-0.0396729	
2769.5	-0.0415039	
2770	-0.0445557	
2770.5	-0.0466919	
2771	-0.0460815	
2771.5	-0.0494385	
2772	-0.0515747	
2772.5	-0.0518799	
2773	-0.0537109	
2773.5	-0.0561523	
2774	-0.0561523	
2774.5	-0.0582886	
2775	-0.0610352	
2775.5	-0.0640869	
2776	-0.0656128	
2776.5	-0.0662231	
2777	-0.0686646	
2777.5	-0.0708008	
2778	-0.071106	
2778.5	-0.0744629	
2779	-0.0756836	
2779.5	-0.0762939	
2780	-0.0787354	
2780.5	-0.0799561	
2781	-0.0814819	
2781.5	-0.083313	
2782	-0.085144	
2782.5	-0.0875854	
2783	-0.090332	
2783.5	-0.0906372	
2784	-0.0924683	
2784.5	-0.0946045	
2785	-0.0958252	
2785.5	-0.0976563	
2786	-0.0994873	
2786.5	-0.100098	
2787	-0.102234	
2787.5	-0.104675	
2788	-0.105591	
2788.5	-0.107727	
2789	-0.109863	
2789.5	-0.110474	
2790	-0.112305	
2790.5	-0.114441	
2791	-0.115051	
2791.5	-0.117188	
2792	-0.119324	
2792.5	-0.12207	
2793	-0.124817	
2793.5	-0.124817	
2794	-0.126953	
2794.5	-0.128784	
2795	-0.129395	
2795.5	-0.131531	
2796	-0.133667	
2796.5	-0.134583	
2797	-0.136719	
2797.5	-0.139465	
2798	-0.140076	
2798.5	-0.141296	
2799	-0.144348	
2799.5	-0.144958	
2800	-0.146484	
2800.5	-0.148621	
2801	-0.149536	
2801.5	-0.151062	
2802	-0.153198	
2802.5	-0.154419	
2803	-0.15686	
2803.5	-0.158081	
2804	-0.159302	
2804.5	-0.160828	
2805	-0.163269	
2805.5	-0.163574	
2806	-0.16449	
2806.5	-0.165405	
2807	-0.168457	
2807.5	-0.169067	
2808	-0.170898	
2808.5	-0.174255	
2809	-0.17395	
2809.5	-0.176392	
2810	-0.177917	
2810.5	-0.178833	
2811	-0.180664	
2811.5	-0.183411	
2812	-0.184021	
2812.5	-0.185547	
2813	-0.188904	
2813.5	-0.188904	
2814	-0.190125	
2814.5	-0.193481	
2815	-0.193481	
2815.5	-0.195618	
2816	-0.198059	
2816.5	-0.197754	
2817	-0.198669	
2817.5	-0.199585	
2818	-0.202942	
2818.5	-0.203247	
2819	-0.204773	
2819.5	-0.207214	
2820	-0.20874	
2820.5	-0.209961	
2821	-0.212402	
2821.5	-0.213013	
2822	-0.214844	
2822.5	-0.217285	
2823	-0.217896	
2823.5	-0.217896	
2824	-0.219727	
2824.5	-0.222473	
2825	-0.223083	
2825.5	-0.224915	
2826	-0.226746	
2826.5	-0.228271	
2827	-0.229492	
2827.5	-0.231934	
2828	-0.232239	
2828.5	-0.233459	
2829	-0.234375	
2829.5	-0.236816	
2830	-0.237427	
2830.5	-0.239258	
2831	-0.241699	
2831.5	-0.24292	
2832	-0.243835	
2832.5	-0.246582	
2833	-0.247803	
2833.5	-0.248108	
2834	-0.248718	
2834.5	-0.252075	
2835	-0.252991	
2835.5	-0.253906	
2836	-0.256653	
2836.5	-0.257874	
2837	-0.257874	
2837.5	-0.259094	
2838	-0.26123	
2838.5	-0.262451	
2839	-0.263672	
2839.5	-0.266724	
2840	-0.267334	
2840.5	-0.26825	
2841	-0.270996	
2841.5	-0.272217	
2842	-0.272522	
2842.5	-0.272827	
2843	-0.276184	
2843.5	-0.277405	
2844	-0.278015	
2844.5	-0.281067	
2845	-0.281677	
2845.5	-0.282898	
2846	-0.285339	
2846.5	-0.286865	
2847	-0.286865	
2847.5	-0.288391	
2848	-0.290833	
2848.5	-0.292053	
2849	-0.292664	
2849.5	-0.296021	
2850	-0.297241	
2850.5	-0.297546	
2851	-0.299988	
2851.5	-0.301819	
2852	-0.301819	
2852.5	-0.302734	
2853	-0.305176	
2853.5	-0.306396	
2854	-0.307312	
2854.5	-0.310364	
2855	-0.312195	
2855.5	-0.311584	
2856	-0.3125	
2856.5	-0.314941	
2857	-0.316162	
2857.5	-0.317078	
2858	-0.320129	
2858.5	-0.32135	
2859	-0.32135	
2859.5	-0.324707	
2860	-0.325928	
2860.5	-0.326843	
2861	-0.327454	
2861.5	-0.32959	
2862	-0.331421	
2862.5	-0.331726	
2863	-0.334473	
2863.5	-0.335693	
2864	-0.336304	
2864.5	-0.339355	
2865	-0.340881	
2865.5	-0.341492	
2866	-0.341797	
2866.5	-0.344849	
2867	-0.345764	
2867.5	-0.346375	
2868	-0.349731	
2868.5	-0.350952	
2869	-0.350647	
2869.5	-0.351563	
2870	-0.354614	
2870.5	-0.355225	
2871	-0.35675	
2871.5	-0.359192	
2872	-0.360718	
2872.5	-0.360718	
2873	-0.36438	
2873.5	-0.365295	
2874	-0.366211	
2874.5	-0.366211	
2875	-0.368347	
2875.5	-0.370789	
2876	-0.370789	
2876.5	-0.374451	
2877	-0.375061	
2877.5	-0.375977	
2878	-0.375977	
2878.5	-0.378723	
2879	-0.380859	
2879.5	-0.380554	
2880	-0.383606	
2880.5	-0.385742	
2881	-0.385742	
2881.5	-0.385742	
2882	-0.388184	
2882.5	-0.389709	
2883	-0.390015	
2883.5	-0.390015	
2884	-0.392761	
2884.5	-0.394287	
2885	-0.395813	
2885.5	-0.397644	
2886	-0.399475	
2886.5	-0.39978	
2887	-0.39978	
2887.5	-0.403137	
2888	-0.404663	
2888.5	-0.404968	
2889	-0.404663	
2889.5	-0.40802	
2890	-0.409546	
2890.5	-0.409241	
2891	-0.409546	
2891.5	-0.412598	
2892	-0.414124	
2892.5	-0.413818	
2893	-0.415039	
2893.5	-0.417786	
2894	-0.419006	
2894.5	-0.419006	
2895	-0.420532	
2895.5	-0.421753	
2896	-0.424194	
2896.5	-0.4245	
2897	-0.4245	
2897.5	-0.427246	
2898	-0.428772	
2898.5	-0.429688	
2899	-0.429688	
2899.5	-0.432739	
2900	-0.43396	
2900.5	-0.434265	
2901	-0.434265	
2901.5	-0.437317	
2902	-0.438232	
2902.5	-0.439453	
2903	-0.438843	
2903.5	-0.440369	
2904	-0.441895	
2904.5	-0.44281	
2905	-0.444336	
2905.5	-0.443726	
2906	-0.444336	
2906.5	-0.447388	
2907	-0.447693	
2907.5	-0.449829	
2908	-0.448608	
2908.5	-0.449829	
2909	-0.45166	
2909.5	-0.453491	
2910	-0.453796	
2910.5	-0.454407	
2911	-0.453796	
2911.5	-0.456238	
2912	-0.457764	
2912.5	-0.459595	
2913	-0.4599	
2913.5	-0.460205	
2914	-0.458679	
2914.5	-0.461426	
2915	-0.463562	
2915.5	-0.463867	
2916	-0.464172	
2916.5	-0.464478	
2917	-0.464172	
2917.5	-0.463867	
2918	-0.465698	
2918.5	-0.467529	
2919	-0.468445	
2919.5	-0.469666	
2920	-0.469055	
2920.5	-0.46936	
2921	-0.469055	
2921.5	-0.469055	
2922	-0.46875	
2922.5	-0.470886	
2923	-0.472412	
2923.5	-0.474243	
2924	-0.473938	
2924.5	-0.473633	
2925	-0.473633	
2925.5	-0.474548	
2926	-0.473633	
2926.5	-0.475159	
2927	-0.473633	
2927.5	-0.473633	
2928	-0.474243	
2928.5	-0.474548	
2929	-0.474243	
2929.5	-0.473328	
2930	-0.473938	
2930.5	-0.473633	
2931	-0.473328	
2931.5	-0.473022	
2932	-0.473022	
2932.5	-0.473938	
2933	-0.474243	
2933.5	-0.473633	
2934	-0.473633	
2934.5	-0.473633	
2935	-0.474243	
2935.5	-0.473328	
2936	-0.473633	
2936.5	-0.473633	
2937	-0.473633	
2937.5	-0.473633	
2938	-0.473328	
2938.5	-0.474243	
2939	-0.473328	
2939.5	-0.473938	
2940	-0.473633	
2940.5	-0.473633	
2941	-0.473328	
2941.5	-0.472107	
2942	-0.469666	
2942.5	-0.469055	
2943	-0.46875	
2943.5	-0.469055	
2944	-0.46875	
2944.5	-0.468445	
2945	-0.467834	
2945.5	-0.465088	
2946	-0.463867	
2946.5	-0.463562	
2947	-0.463562	
2947.5	-0.463562	
2948	-0.462952	
2948.5	-0.460205	
2949	-0.459595	
2949.5	-0.458984	
2950	-0.458679	
2950.5	-0.457458	
2951	-0.455322	
2951.5	-0.454407	
2952	-0.454102	
2952.5	-0.452576	
2953	-0.450439	
2953.5	-0.448608	
2954	-0.449219	
2954.5	-0.447998	
2955	-0.445862	
2955.5	-0.444336	
2956	-0.443115	
2956.5	-0.440369	
2957	-0.439148	
2957.5	-0.437927	
2958	-0.436096	
2958.5	-0.43457	
2959	-0.43335	
2959.5	-0.430298	
2960	-0.429688	
2960.5	-0.428467	
2961	-0.425415	
2961.5	-0.424194	
2962	-0.423584	
2962.5	-0.420837	
2963	-0.418091	
2963.5	-0.415039	
2964	-0.415039	
2964.5	-0.413818	
2965	-0.411072	
2965.5	-0.408936	
2966	-0.406189	
2966.5	-0.404663	
2967	-0.403442	
2967.5	-0.401611	
2968	-0.39978	
2968.5	-0.397034	
2969	-0.393982	
2969.5	-0.391541	
2970	-0.389709	
2970.5	-0.386658	
2971	-0.384827	
2971.5	-0.38269	
2972	-0.380249	
2972.5	-0.377502	
2973	-0.374756	
2973.5	-0.37262	
2974	-0.370178	
2974.5	-0.367126	
2975	-0.36499	
2975.5	-0.361328	
2976	-0.357666	
2976.5	-0.355835	
2977	-0.352478	
2977.5	-0.350342	
2978	-0.348206	
2978.5	-0.345154	
2979	-0.341797	
2979.5	-0.33844	
2980	-0.335388	
2980.5	-0.332031	
2981	-0.328064	
2981.5	-0.326538	
2982	-0.323486	
2982.5	-0.32074	
2983	-0.317078	
2983.5	-0.314026	
2984	-0.311584	
2984.5	-0.308228	
2985	-0.303955	
2985.5	-0.301819	
2986	-0.298157	
2986.5	-0.293884	
2987	-0.291748	
2987.5	-0.288696	
2988	-0.283813	
2988.5	-0.279541	
2989	-0.2771	
2989.5	-0.273743	
2990	-0.26947	
2990.5	-0.267639	
2991	-0.264282	
2991.5	-0.258484	
2992	-0.255127	
2992.5	-0.252686	
2993	-0.249634	
2993.5	-0.244141	
2994	-0.240173	
2994.5	-0.237732	
2995	-0.234375	
2995.5	-0.230103	
2996	-0.224915	
2996.5	-0.223083	
2997	-0.220032	
2997.5	-0.214844	
2998	-0.210571	
2998.5	-0.205994	
2999	-0.203552	
2999.5	-0.200806	
3000	-0.196228	
3000.5	-0.190125	
3001	-0.186157	
3001.5	-0.184631	
3002	-0.180359	
3002.5	-0.175781	
3003	-0.171204	
3003.5	-0.166626	
3004	-0.16449	
3004.5	-0.160522	
3005	-0.156555	
3005.5	-0.151672	
3006	-0.147095	
3006.5	-0.142212	
3007	-0.139771	
3007.5	-0.136719	
3008	-0.132141	
3008.5	-0.127563	
3009	-0.121765	
3009.5	-0.117493	
3010	-0.112	
3010.5	-0.110474	
3011	-0.106812	
3011.5	-0.102539	
3012	-0.0976563	
3012.5	-0.093689	
3013	-0.0875854	
3013.5	-0.0830078	
3014	-0.0784302	
3014.5	-0.0762939	
3015	-0.072937	
3015.5	-0.0689697	
3016	-0.0637817	
3016.5	-0.0588989	
3017	-0.0546265	
3017.5	-0.0488281	
3018	-0.0436401	
3018.5	-0.0418091	
3019	-0.0390625	
3019.5	-0.03479	
3020	-0.0296021	
3020.5	-0.0253296	
3021	-0.0201416	
3021.5	-0.015564	
3022	-0.010376	
3022.5	-0.00762939	
3023	-0.00427246	
3023.5	-0.000305176	
3024	0.00427246	
3024.5	0.00946045	
3025	0.0134277	
3025.5	0.0189209	
3026	0.0244141	
3026.5	0.0289917	
3027	0.0314331	
3027.5	0.03479	
3028	0.0390625	
3028.5	0.043335	
3029	0.0473022	
3029.5	0.0527954	
3030	0.0588989	
3030.5	0.0628662	
3031	0.0683594	
3031.5	0.0708008	
3032	0.0738525	
3032.5	0.0775146	
3033	0.0817871	
3033.5	0.0872803	
3034	0.0915527	
3034.5	0.0967407	
3035	0.101929	
3035.5	0.104675	
3036	0.107727	
3036.5	0.112	
3037	0.116577	
3037.5	0.121155	
3038	0.126648	
3038.5	0.131531	
3039	0.136108	
3039.5	0.138245	
3040	0.141907	
3040.5	0.145569	
3041	0.151367	
3041.5	0.156555	
3042	0.160828	
3042.5	0.16571	
3043	0.168457	
3043.5	0.170288	
3044	0.175781	
3044.5	0.179749	
3045	0.184326	
3045.5	0.189514	
3046	0.192871	
3046.5	0.195618	
3047	0.19989	
3047.5	0.204468	
3048	0.209351	
3048.5	0.214844	
3049	0.217285	
3049.5	0.220337	
3050	0.224915	
3050.5	0.228882	
3051	0.23407	
3051.5	0.236206	
3052	0.239563	
3052.5	0.24353	
3053	0.248413	
3053.5	0.253296	
3054	0.258789	
3054.5	0.261536	
3055	0.263672	
3055.5	0.267944	
3056	0.272827	
3056.5	0.275574	
3057	0.278625	
3057.5	0.281982	
3058	0.288086	
3058.5	0.292358	
3059	0.29541	
3059.5	0.297852	
3060	0.302124	
3060.5	0.306396	
3061	0.309753	
3061.5	0.312805	
3062	0.317383	
3062.5	0.322266	
3063	0.325317	
3063.5	0.327454	
3064	0.331726	
3064.5	0.336304	
3065	0.33905	
3065.5	0.342102	
3066	0.34668	
3066.5	0.349426	
3067	0.351868	
3067.5	0.356445	
3068	0.361328	
3068.5	0.364075	
3069	0.366211	
3069.5	0.371094	
3070	0.37384	
3070.5	0.376587	
3071	0.380554	
3071.5	0.383911	
3072	0.386353	
3072.5	0.39032	
3073	0.394897	
3073.5	0.398865	
3074	0.401917	
3074.5	0.405579	
3075	0.40863	
3075.5	0.411072	
3076	0.414429	
3076.5	0.418396	
3077	0.420837	
3077.5	0.423279	
3078	0.426025	
3078.5	0.430298	
3079	0.433044	
3079.5	0.435486	
3080	0.439453	
3080.5	0.442505	
3081	0.444946	
3081.5	0.448914	
3082	0.452881	
3082.5	0.454712	
3083	0.458069	
3083.5	0.460205	
3084	0.464172	
3084.5	0.467224	
3085	0.469971	
3085.5	0.472107	
3086	0.474243	
3086.5	0.47821	
3087	0.482483	
3087.5	0.484314	
3088	0.486755	
3088.5	0.488892	
3089	0.491638	
3089.5	0.493774	
3090	0.498047	
3090.5	0.501709	
3091	0.504456	
3091.5	0.506897	
3092	0.508728	
3092.5	0.510864	
3093	0.513916	
3093.5	0.516052	
3094	0.519104	
3094.5	0.522461	
3095	0.526123	
3095.5	0.528564	
3096	0.531006	
3096.5	0.533142	
3097	0.536499	
3097.5	0.53833	
3098	0.540771	
3098.5	0.542908	
3099	0.545654	
3099.5	0.547791	
3100	0.550537	
3100.5	0.552979	
3101	0.555725	
3101.5	0.557556	
3102	0.560608	
3102.5	0.561523	
3103	0.565796	
3103.5	0.567017	
3104	0.570679	
3104.5	0.571899	
3105	0.575562	
3105.5	0.576477	
3106	0.577087	
3106.5	0.579834	
3107	0.582275	
3107.5	0.585327	
3108	0.587158	
3108.5	0.5896	
3109	0.592041	
3109.5	0.594788	
3110	0.597229	
3110.5	0.59967	
3111	0.600586	
3111.5	0.601501	
3112	0.604553	
3112.5	0.606384	
3113	0.608826	
3113.5	0.610657	
3114	0.611267	
3114.5	0.613708	
3115	0.61554	
3115.5	0.618591	
3116	0.620728	
3116.5	0.621948	
3117	0.623779	
3117.5	0.625916	
3118	0.628967	
3118.5	0.630798	
3119	0.631104	
3119.5	0.63324	
3120	0.635986	
3120.5	0.638428	
3121	0.639954	
3121.5	0.640869	
3122	0.6427	
3122.5	0.644836	
3123	0.646057	
3123.5	0.648193	
3124	0.65033	
3124.5	0.650635	
3125	0.652771	
3125.5	0.655212	
3126	0.655518	
3126.5	0.658569	
3127	0.659485	
3127.5	0.6604	
3128	0.662842	
3128.5	0.664978	
3129	0.664978	
3129.5	0.668335	
3130	0.66925	
3130.5	0.670166	
3131	0.670166	
3131.5	0.672607	
3132	0.674438	
3132.5	0.674744	
3133	0.677795	
3133.5	0.679321	
3134	0.680542	
3134.5	0.679932	
3135	0.682373	
3135.5	0.684814	
3136	0.68512	
3136.5	0.685425	
3137	0.687561	
3137.5	0.689087	
3138	0.690002	
3138.5	0.689697	
3139	0.692749	
3139.5	0.694275	
3140	0.69458	
3140.5	0.694885	
3141	0.698242	
3141.5	0.699158	
3142	0.700073	
3142.5	0.699463	
3143	0.700378	
3143.5	0.70282	
3144	0.704041	
3144.5	0.704041	
3145	0.704346	
3145.5	0.705261	
3146	0.707092	
3146.5	0.708618	
3147	0.709534	
3147.5	0.709229	
3148	0.709534	
3148.5	0.709839	
3149	0.71228	
3149.5	0.714417	
3150	0.713806	
3150.5	0.714722	
3151	0.714111	
3151.5	0.714111	
3152	0.714111	
3152.5	0.716553	
3153	0.719604	
3153.5	0.719299	
3154	0.719604	
3154.5	0.719299	
3155	0.719299	
3155.5	0.719299	
3156	0.719604	
3156.5	0.719604	
3157	0.719299	
3157.5	0.721436	
3158	0.723572	
3158.5	0.724487	
3159	0.724487	
3159.5	0.724792	
3160	0.724792	
3160.5	0.724487	
3161	0.723877	
3161.5	0.724182	
3162	0.723572	
3162.5	0.723877	
3163	0.723877	
3163.5	0.724182	
3164	0.724487	
3164.5	0.724182	
3165	0.724182	
3165.5	0.724792	
3166	0.724487	
3166.5	0.726624	
3167	0.728149	
3167.5	0.72876	
3168	0.72937	
3168.5	0.72937	
3169	0.72937	
3169.5	0.729065	
3170	0.72937	
3170.5	0.727844	
3171	0.725098	
3171.5	0.724487	
3172	0.724182	
3172.5	0.725098	
3173	0.724792	
3173.5	0.724487	
3174	0.724182	
3174.5	0.723572	
3175	0.724182	
3175.5	0.724487	
3176	0.724487	
3176.5	0.724792	
3177	0.723877	
3177.5	0.724182	
3178	0.724182	
3178.5	0.724182	
3179	0.724182	
3179.5	0.723877	
3180	0.722351	
3180.5	0.720215	
3181	0.719299	
3181.5	0.718994	
3182	0.719604	
3182.5	0.719604	
3183	0.719299	
3183.5	0.718994	
3184	0.719299	
3184.5	0.717468	
3185	0.714722	
3185.5	0.714417	
3186	0.714722	
3186.5	0.713806	
3187	0.714417	
3187.5	0.714722	
3188	0.714417	
3188.5	0.712891	
3189	0.710449	
3189.5	0.709229	
3190	0.709534	
3190.5	0.708923	
3191	0.710144	
3191.5	0.707703	
3192	0.706482	
3192.5	0.704346	
3193	0.705261	
3193.5	0.704651	
3194	0.704651	
3194.5	0.70343	
3195	0.700989	
3195.5	0.699463	
3196	0.699463	
3196.5	0.699158	
3197	0.697632	
3197.5	0.69519	
3198	0.694275	
3198.5	0.695496	
3199	0.694885	
3199.5	0.693359	
3200	0.690613	
3200.5	0.690002	
3201	0.690002	
3201.5	0.688477	
3202	0.685425	
3202.5	0.68512	
3203	0.684814	
3203.5	0.683289	
3204	0.680542	
3204.5	0.680847	
3205	0.680542	
3205.5	0.679016	
3206	0.675964	
3206.5	0.675354	
3207	0.674744	
3207.5	0.674133	
3208	0.671082	
3208.5	0.669861	
3209	0.670166	
3209.5	0.668945	
3210	0.665588	
3210.5	0.665283	
3211	0.664673	
3211.5	0.661621	
3212	0.6604	
3212.5	0.6604	
3213	0.65918	
3213.5	0.656128	
3214	0.655823	
3214.5	0.654297	
3215	0.651245	
3215.5	0.65033	
3216	0.649719	
3216.5	0.646667	
3217	0.645447	
3217.5	0.643921	
3218	0.64209	
3218.5	0.640869	
3219	0.639648	
3219.5	0.636902	
3220	0.635681	
3220.5	0.63446	
3221	0.632019	
3221.5	0.631104	
3222	0.629883	
3222.5	0.626526	
3223	0.626221	
3223.5	0.625	
3224	0.622253	
3224.5	0.621338	
3225	0.619812	
3225.5	0.617676	
3226	0.61676	
3226.5	0.61554	
3227	0.611877	
3227.5	0.611267	
3228	0.610352	
3228.5	0.607605	
3229	0.606689	
3229.5	0.605469	
3230	0.602112	
3230.5	0.600891	
3231	0.597839	
3231.5	0.596619	
3232	0.595703	
3232.5	0.592957	
3233	0.591431	
3233.5	0.590515	
3234	0.588074	
3234.5	0.586853	
3235	0.586243	
3235.5	0.583191	
3236	0.581055	
3236.5	0.578003	
3237	0.576782	
3237.5	0.576172	
3238	0.57312	
3238.5	0.571594	
3239	0.568237	
3239.5	0.567017	
3240	0.566406	
3240.5	0.563049	
3241	0.561829	
3241.5	0.561523	
3242	0.558167	
3242.5	0.556641	
3243	0.553894	
3243.5	0.552673	
3244	0.551758	
3244.5	0.549011	
3245	0.54718	
3245.5	0.543518	
3246	0.543213	
3246.5	0.541992	
3247	0.539246	
3247.5	0.537415	
3248	0.534363	
3248.5	0.532532	
3249	0.532837	
3249.5	0.529175	
3250	0.527954	
3250.5	0.527344	
3251	0.524902	
3251.5	0.523071	
3252	0.52002	
3252.5	0.517883	
3253	0.517578	
3253.5	0.515137	
3254	0.513	
3254.5	0.510254	
3255	0.508728	
3255.5	0.508118	
3256	0.505066	
3256.5	0.50354	
3257	0.499878	
3257.5	0.498047	
3258	0.498047	
3258.5	0.4953	
3259	0.493469	
3259.5	0.489807	
3260	0.488586	
3260.5	0.487671	
3261	0.486145	
3261.5	0.484314	
3262	0.480957	
3262.5	0.478821	
3263	0.478821	
3263.5	0.476379	
3264	0.474243	
3264.5	0.470581	
3265	0.46875	
3265.5	0.468445	
3266	0.466614	
3266.5	0.464478	
3267	0.460815	
3267.5	0.45929	
3268	0.458679	
3268.5	0.456238	
3269	0.454407	
3269.5	0.450745	
3270	0.449829	
3270.5	0.448914	
3271	0.446777	
3271.5	0.444336	
3272	0.44342	
3272.5	0.441589	
3273	0.439453	
3273.5	0.436707	
3274	0.434875	
3274.5	0.434265	
3275	0.431519	
3275.5	0.429688	
3276	0.426941	
3276.5	0.42511	
3277	0.424805	
3277.5	0.422058	
3278	0.420227	
3278.5	0.417175	
3279	0.415344	
3279.5	0.415344	
3280	0.411987	
3280.5	0.410461	
3281	0.410156	
3281.5	0.406799	
3282	0.405579	
3282.5	0.402527	
3283	0.400391	
3283.5	0.39978	
3284	0.397339	
3284.5	0.394897	
3285	0.392761	
3285.5	0.390015	
3286	0.389709	
3286.5	0.387573	
3287	0.384827	
3287.5	0.384216	
3288	0.382385	
3288.5	0.379944	
3289	0.377808	
3289.5	0.375061	
3290	0.375061	
3290.5	0.37262	
3291	0.371094	
3291.5	0.369873	
3292	0.368347	
3292.5	0.366516	
3293	0.362549	
3293.5	0.360413	
3294	0.360718	
3294.5	0.358582	
3295	0.356445	
3295.5	0.353699	
3296	0.351257	
3296.5	0.350037	
3297	0.348511	
3297.5	0.34668	
3298	0.345154	
3298.5	0.343628	
3299	0.340881	
3299.5	0.33905	
3300	0.335999	
3300.5	0.335388	
3301	0.334167	
3301.5	0.330811	
3302	0.331116	
3302.5	0.328674	
3303	0.327148	
3303.5	0.324097	
3304	0.32135	
3304.5	0.32074	
3305	0.318604	
3305.5	0.316467	
3306	0.313721	
3306.5	0.312195	
3307	0.310974	
3307.5	0.309143	
3308	0.306702	
3308.5	0.306396	
3309	0.304871	
3309.5	0.302429	
3310	0.299988	
3310.5	0.297852	
3311	0.296936	
3311.5	0.294189	
3312	0.292358	
3312.5	0.289917	
3313	0.287476	
3313.5	0.28656	
3314	0.284729	
3314.5	0.282593	
3315	0.281982	
3315.5	0.279846	
3316	0.27771	
3316.5	0.275269	
3317	0.272522	
3317.5	0.271912	
3318	0.270996	
3318.5	0.267334	
3319	0.265503	
3319.5	0.263062	
3320	0.262451	
3320.5	0.260315	
3321	0.258179	
3321.5	0.255737	
3322	0.253906	
3322.5	0.25177	
3323	0.250549	
3323.5	0.248108	
3324	0.246582	
3324.5	0.24292	
3325	0.24292	
3325.5	0.241089	
3326	0.238037	
3326.5	0.236206	
3327	0.234375	
3327.5	0.232849	
3328	0.231628	
3328.5	0.229187	
3329	0.227051	
3329.5	0.224304	
3330	0.223083	
3330.5	0.221252	
3331	0.219116	
3331.5	0.21698	
3332	0.213928	
3332.5	0.213013	
3333	0.211792	
3333.5	0.209961	
3334	0.207214	
3334.5	0.204468	
3335	0.203247	
3335.5	0.202332	
3336	0.200195	
3336.5	0.197144	
3337	0.194397	
3337.5	0.194092	
3338	0.191956	
3338.5	0.190125	
3339	0.187683	
3339.5	0.185242	
3340	0.183105	
3340.5	0.179138	
3341	0.178833	
3341.5	0.177917	
3342	0.175171	
3342.5	0.173035	
3343	0.169373	
3343.5	0.167847	
3344	0.16449	
3344.5	0.16449	
3345	0.162964	
3345.5	0.159912	
3346	0.158386	
3346.5	0.155334	
3347	0.152893	
3347.5	0.149841	
3348	0.149841	
3348.5	0.148621	
3349	0.145569	
3349.5	0.143433	
3350	0.140686	
3350.5	0.138245	
3351	0.136108	
3351.5	0.134583	
3352	0.133667	
3352.5	0.13092	
3353	0.129089	
3353.5	0.125732	
3354	0.123901	
3354.5	0.120544	
3355	0.119019	
3355.5	0.116272	
3356	0.115662	
3356.5	0.113831	
3357	0.112	
3357.5	0.109558	
3358	0.106201	
3358.5	0.105286	
3359	0.101624	
3359.5	0.0994873	
3360	0.0976563	
3360.5	0.09552	
3361	0.0946045	
3361.5	0.0915527	
3362	0.0900269	
3362.5	0.0872803	
3363	0.0848389	
3363.5	0.0820923	
3364	0.0802612	
3364.5	0.078125	
3365	0.0756836	
3365.5	0.072937	
3366	0.0714111	
3366.5	0.0674438	
3367	0.0668335	
3367.5	0.065918	
3368	0.0622559	
3368.5	0.0616455	
3369	0.0582886	
3369.5	0.0561523	
3370	0.0537109	
3370.5	0.0512695	
3371	0.0491333	
3371.5	0.0466919	
3372	0.043335	
3372.5	0.0418091	
3373	0.0387573	
3373.5	0.0369263	
3374	0.032959	
3374.5	0.0320435	
3375	0.0311279	
3375.5	0.0286865	
3376	0.0271606	
3376.5	0.0238037	
3377	0.0219727	
3377.5	0.0192261	
3378	0.017395	
3378.5	0.0140381	
3379	0.012207	
3379.5	0.00915527	
3380	0.00732422	
3380.5	0.00366211	
3381	0.00183105	
3381.5	-0.000305176	
3382	-0.00274658	
3382.5	-0.00579834	
3383	-0.00762939	
3383.5	-0.010376	
3384	-0.0119019	
3384.5	-0.0143433	
3385	-0.0170898	
3385.5	-0.017395	
3386	-0.0195313	
3386.5	-0.0216675	
3387	-0.0250244	
3387.5	-0.0265503	
3388	-0.0292969	
3388.5	-0.0311279	
3389	-0.0344849	
3389.5	-0.0360107	
3390	-0.0396729	
3390.5	-0.0415039	
3391	-0.0439453	
3391.5	-0.0463867	
3392	-0.0494385	
3392.5	-0.0512695	
3393	-0.0537109	
3393.5	-0.0561523	
3394	-0.0592041	
3394.5	-0.06073	
3395	-0.0643921	
3395.5	-0.0656128	
3396	-0.0692749	
3396.5	-0.0701904	
3397	-0.0744629	
3397.5	-0.0756836	
3398	-0.0784302	
3398.5	-0.0808716	
3399	-0.0836182	
3399.5	-0.0854492	
3400	-0.0860596	
3400.5	-0.0878906	
3401	-0.0900269	
3401.5	-0.093689	
3402	-0.0952148	
3402.5	-0.0973511	
3403	-0.100098	
3403.5	-0.103455	
3404	-0.10498	
3404.5	-0.107727	
3405	-0.110168	
3405.5	-0.112305	
3406	-0.114441	
3406.5	-0.118103	
3407	-0.119629	
3407.5	-0.122375	
3408	-0.124512	
3408.5	-0.127563	
3409	-0.1297	
3409.5	-0.132446	
3410	-0.134277	
3410.5	-0.137634	
3411	-0.13916	
3411.5	-0.141602	
3412	-0.144043	
3412.5	-0.146484	
3413	-0.149231	
3413.5	-0.151978	
3414	-0.153809	
3414.5	-0.156555	
3415	-0.158691	
3415.5	-0.158997	
3416	-0.161743	
3416.5	-0.163574	
3417	-0.166931	
3417.5	-0.168762	
3418	-0.170898	
3418.5	-0.17334	
3419	-0.176086	
3419.5	-0.178223	
3420	-0.18158	
3420.5	-0.183105	
3421	-0.187073	
3421.5	-0.187988	
3422	-0.19104	
3422.5	-0.192566	
3423	-0.196228	
3423.5	-0.198059	
3424	-0.200806	
3424.5	-0.202942	
3425	-0.205688	
3425.5	-0.20813	
3426	-0.20813	
3426.5	-0.210571	
3427	-0.212402	
3427.5	-0.215454	
3428	-0.217285	
3428.5	-0.220337	
3429	-0.222168	
3429.5	-0.224609	
3430	-0.227661	
3430.5	-0.229797	
3431	-0.232239	
3431.5	-0.235596	
3432	-0.237122	
3432.5	-0.238342	
3433	-0.240173	
3433.5	-0.24231	
3434	-0.244751	
3434.5	-0.247192	
3435	-0.249634	
3435.5	-0.25238	
3436	-0.254822	
3436.5	-0.257263	
3437	-0.258789	
3437.5	-0.261841	
3438	-0.261841	
3438.5	-0.264282	
3439	-0.267029	
3439.5	-0.269165	
3440	-0.271606	
3440.5	-0.274963	
3441	-0.276489	
3441.5	-0.278931	
3442	-0.281372	
3442.5	-0.285034	
3443	-0.28656	
3443.5	-0.286865	
3444	-0.288696	
3444.5	-0.291443	
3445	-0.293884	
3445.5	-0.296631	
3446	-0.299072	
3446.5	-0.300598	
3447	-0.301514	
3447.5	-0.303345	
3448	-0.305481	
3448.5	-0.307922	
3449	-0.311279	
3449.5	-0.313721	
3450	-0.315857	
3450.5	-0.317688	
3451	-0.320129	
3451.5	-0.321045	
3452	-0.322571	
3452.5	-0.325928	
3453	-0.328369	
3453.5	-0.330811	
3454	-0.330811	
3454.5	-0.333252	
3455	-0.335083	
3455.5	-0.337524	
3456	-0.339661	
3456.5	-0.342407	
3457	-0.344543	
3457.5	-0.345764	
3458	-0.34729	
3458.5	-0.349121	
3459	-0.352173	
3459.5	-0.355225	
3460	-0.35675	
3460.5	-0.359497	
3461	-0.360718	
3461.5	-0.362244	
3462	-0.364685	
3462.5	-0.366211	
3463	-0.369873	
3463.5	-0.370789	
3464	-0.372009	
3464.5	-0.374451	
3465	-0.376587	
3465.5	-0.378723	
3466	-0.380249	
3466.5	-0.38147	
3467	-0.384216	
3467.5	-0.386353	
3468	-0.388489	
3468.5	-0.389709	
3469	-0.390625	
3469.5	-0.393677	
3470	-0.396423	
3470.5	-0.398865	
3471	-0.39978	
3471.5	-0.400391	
3472	-0.403137	
3472.5	-0.405579	
3473	-0.408325	
3473.5	-0.409546	
3474	-0.410156	
3474.5	-0.413818	
3475	-0.413818	
3475.5	-0.415649	
3476	-0.418396	
3476.5	-0.420837	
3477	-0.422363	
3477.5	-0.424194	
3478	-0.42572	
3478.5	-0.428162	
3479	-0.429382	
3479.5	-0.433044	
3480	-0.43457	
3480.5	-0.43457	
3481	-0.438538	
3481.5	-0.438843	
3482	-0.440674	
3482.5	-0.44342	
3483	-0.444031	
3483.5	-0.445251	
3484	-0.447388	
3484.5	-0.448914	
3485	-0.452271	
3485.5	-0.454407	
3486	-0.455322	
3486.5	-0.457458	
3487	-0.458984	
3487.5	-0.4599	
3488	-0.462341	
3488.5	-0.463867	
3489	-0.465088	
3489.5	-0.466919	
3490	-0.469055	
3490.5	-0.472107	
3491	-0.473328	
3491.5	-0.474243	
3492	-0.47699	
3492.5	-0.478516	
3493	-0.479736	
3493.5	-0.481873	
3494	-0.482788	
3494.5	-0.483398	
3495	-0.487061	
3495.5	-0.487671	
3496	-0.488892	
3496.5	-0.492249	
3497	-0.492859	
3497.5	-0.496521	
3498	-0.497742	
3498.5	-0.498657	
3499	-0.501709	
3499.5	-0.50293	
3500	-0.50354	
3500.5	-0.506287	
3501	-0.507813	
3501.5	-0.508728	
3502	-0.511169	
3502.5	-0.513306	
3503	-0.512695	
3503.5	-0.515747	
3504	-0.516968	
3504.5	-0.518494	
3505	-0.520935	
3505.5	-0.523071	
3506	-0.523071	
3506.5	-0.525818	
3507	-0.527039	
3507.5	-0.528564	
3508	-0.530701	
3508.5	-0.531921	
3509	-0.532532	
3509.5	-0.535583	
3510	-0.537109	
3510.5	-0.538025	
3511	-0.540771	
3511.5	-0.541992	
3512	-0.542908	
3512.5	-0.545349	
3513	-0.546875	
3513.5	-0.548401	
3514	-0.550842	
3514.5	-0.552673	
3515	-0.553284	
3515.5	-0.552979	
3516	-0.555725	
3516.5	-0.557251	
3517	-0.557861	
3517.5	-0.560303	
3518	-0.562134	
3518.5	-0.562744	
3519	-0.56488	
3519.5	-0.567322	
3520	-0.567627	
3520.5	-0.570374	
3521	-0.572205	
3521.5	-0.572205	
3522	-0.575562	
3522.5	-0.577087	
3523	-0.576782	
3523.5	-0.579834	
3524	-0.58136	
3524.5	-0.581665	
3525	-0.582581	
3525.5	-0.585022	
3526	-0.587158	
3526.5	-0.587158	
3527	-0.589905	
3527.5	-0.592346	
3528	-0.592651	
3528.5	-0.594177	
3529	-0.596313	
3529.5	-0.596313	
3530	-0.597229	
3530.5	-0.599365	
3531	-0.601807	
3531.5	-0.601807	
3532	-0.604553	
3532.5	-0.605774	
3533	-0.606689	
3533.5	-0.609131	
3534	-0.611572	
3534.5	-0.610962	
3535	-0.611267	
3535.5	-0.614624	
3536	-0.615845	
3536.5	-0.61615	
3537	-0.618896	
3537.5	-0.620728	
3538	-0.621643	
3538.5	-0.621338	
3539	-0.623779	
3539.5	-0.626526	
3540	-0.626526	
3540.5	-0.628357	
3541	-0.630493	
3541.5	-0.631409	
3542	-0.631409	
3542.5	-0.63385	
3543	-0.635681	
3543.5	-0.635681	
3544	-0.639038	
3544.5	-0.640869	
3545	-0.641479	
3545.5	-0.641174	
3546	-0.643311	
3546.5	-0.645447	
3547	-0.645142	
3547.5	-0.648193	
3548	-0.65033	
3548.5	-0.650635	
3549	-0.650635	
3549.5	-0.652771	
3550	-0.655212	
3550.5	-0.655823	
3551	-0.655823	
3551.5	-0.657959	
3552	-0.659485	
3552.5	-0.661316	
3553	-0.662231	
3553.5	-0.664978	
3554	-0.664978	
3554.5	-0.666504	
3555	-0.667419	
3555.5	-0.669861	
3556	-0.670776	
3556.5	-0.670776	
3557	-0.672913	
3557.5	-0.674438	
3558	-0.675659	
3558.5	-0.675659	
3559	-0.67688	
3559.5	-0.679626	
3560	-0.680847	
3560.5	-0.680542	
3561	-0.682068	
3561.5	-0.683899	
3562	-0.685425	
3562.5	-0.684814	
3563	-0.687561	
3563.5	-0.689087	
3564	-0.690002	
3564.5	-0.690002	
3565	-0.691223	
3565.5	-0.694885	
3566	-0.69519	
3566.5	-0.695496	
3567	-0.696411	
3567.5	-0.699768	
3568	-0.699768	
3568.5	-0.699768	
3569	-0.701294	
3569.5	-0.704041	
3570	-0.704956	
3570.5	-0.704956	
3571	-0.706177	
3571.5	-0.708313	
3572	-0.710144	
3572.5	-0.710449	
3573	-0.710449	
3573.5	-0.71167	
3574	-0.713806	
3574.5	-0.715332	
3575	-0.715027	
3575.5	-0.714722	
3576	-0.716248	
3576.5	-0.718689	
3577	-0.719604	
3577.5	-0.720215	
3578	-0.72113	
3578.5	-0.723572	
3579	-0.724182	
3579.5	-0.724182	
3580	-0.725098	
3580.5	-0.724792	
3581	-0.726318	
3581.5	-0.728149	
3582	-0.729675	
3582.5	-0.72937	
3583	-0.729065	
3583.5	-0.730896	
3584	-0.733337	
3584.5	-0.734253	
3585	-0.733948	
3585.5	-0.734863	
3586	-0.733948	
3586.5	-0.735168	
3587	-0.737915	
3587.5	-0.739136	
3588	-0.739441	
3588.5	-0.739441	
3589	-0.739136	
3589.5	-0.739136	
3590	-0.739746	
3590.5	-0.743103	
3591	-0.743713	
3591.5	-0.744324	
3592	-0.744019	
3592.5	-0.744324	
3593	-0.744019	
3593.5	-0.744019	
3594	-0.745239	
3594.5	-0.747681	
3595	-0.748901	
3595.5	-0.749207	
3596	-0.748901	
3596.5	-0.749207	
3597	-0.749207	
3597.5	-0.748901	
3598	-0.749207	
3598.5	-0.748901	
3599	-0.749512	
3599.5	-0.748596	
3600	-0.748596	
3600.5	-0.749512	
3601	-0.748596	
3601.5	-0.749207	
3602	-0.749207	
3602.5	-0.748901	
3603	-0.748901	
3603.5	-0.748901	
3604	-0.748901	
3604.5	-0.749207	
3605	-0.749207	
3605.5	-0.748901	
3606	-0.749207	
3606.5	-0.748901	
3607	-0.748901	
3607.5	-0.749207	
3608	-0.748901	
3608.5	-0.749207	
3609	-0.748901	
3609.5	-0.749207	
3610	-0.748901	
3610.5	-0.749207	
3611	-0.748901	
3611.5	-0.749207	
3612	-0.748901	
3612.5	-0.748901	
3613	-0.749817	
3613.5	-0.748596	
3614	-0.746155	
3614.5	-0.744629	
3615	-0.744019	
3615.5	-0.744019	
3616	-0.743713	
3616.5	-0.744324	
3617	-0.743408	
3617.5	-0.740662	
3618	-0.739136	
3618.5	-0.738831	
3619	-0.738831	
3619.5	-0.738831	
3620	-0.738831	
3620.5	-0.736389	
3621	-0.734558	
3621.5	-0.734253	
3622	-0.734558	
3622.5	-0.733948	
3623	-0.731201	
3623.5	-0.72937	
3624	-0.72876	
3624.5	-0.72876	
3625	-0.726318	
3625.5	-0.724792	
3626	-0.724182	
3626.5	-0.724487	
3627	-0.721436	
3627.5	-0.719604	
3628	-0.719299	
3628.5	-0.716553	
3629	-0.715027	
3629.5	-0.715027	
3630	-0.71106	
3630.5	-0.710449	
3631	-0.710449	
3631.5	-0.706482	
3632	-0.704956	
3632.5	-0.704346	
3633	-0.701599	
3633.5	-0.700684	
3634	-0.699768	
3634.5	-0.697327	
3635	-0.695496	
3635.5	-0.691833	
3636	-0.690308	
3636.5	-0.689697	
3637	-0.687256	
3637.5	-0.685425	
3638	-0.682678	
3638.5	-0.680847	
3639	-0.67749	
3639.5	-0.675659	
3640	-0.672302	
3640.5	-0.670776	
3641	-0.670166	
3641.5	-0.667725	
3642	-0.666809	
3642.5	-0.663147	
3643	-0.661621	
3643.5	-0.657959	
3644	-0.653381	
3644.5	-0.65155	
3645	-0.648193	
3645.5	-0.646362	
3646	-0.6427	
3646.5	-0.641785	
3647	-0.638123	
3647.5	-0.636902	
3648	-0.633545	
3648.5	-0.631714	
3649	-0.628357	
3649.5	-0.624084	
3650	-0.622559	
3650.5	-0.618896	
3651	-0.61676	
3651.5	-0.614319	
3652	-0.609741	
3652.5	-0.607605	
3653	-0.604553	
3653.5	-0.59967	
3654	-0.597534	
3654.5	-0.594177	
3655	-0.589905	
3655.5	-0.587463	
3656	-0.584717	
3656.5	-0.579834	
3657	-0.578308	
3657.5	-0.574646	
3658	-0.570374	
3658.5	-0.567627	
3659	-0.564575	
3659.5	-0.560303	
3660	-0.558167	
3660.5	-0.55481	
3661	-0.551147	
3661.5	-0.545654	
3662	-0.543823	
3662.5	-0.539856	
3663	-0.535889	
3663.5	-0.530396	
3664	-0.528564	
3664.5	-0.524902	
3665	-0.52124	
3665.5	-0.516663	
3666	-0.513306	
3666.5	-0.511169	
3667	-0.506592	
3667.5	-0.501709	
3668	-0.496826	
3668.5	-0.49408	
3669	-0.491333	
3669.5	-0.487061	
3670	-0.482178	
3670.5	-0.477295	
3671	-0.474548	
3671.5	-0.471191	
3672	-0.467529	
3672.5	-0.462952	
3673	-0.457764	
3673.5	-0.452881	
3674	-0.450439	
3674.5	-0.447083	
3675	-0.443115	
3675.5	-0.437927	
3676	-0.432739	
3676.5	-0.428467	
3677	-0.422974	
3677.5	-0.420837	
3678	-0.41748	
3678.5	-0.413513	
3679	-0.408936	
3679.5	-0.404053	
3680	-0.398865	
3680.5	-0.393982	
3681	-0.389099	
3681.5	-0.386658	
3682	-0.384216	
3682.5	-0.379333	
3683	-0.374451	
3683.5	-0.369568	
3684	-0.36438	
3684.5	-0.359802	
3685	-0.354614	
3685.5	-0.350342	
3686	-0.344849	
3686.5	-0.340576	
3687	-0.336609	
3687.5	-0.334473	
3688	-0.330505	
3688.5	-0.325623	
3689	-0.32074	
3689.5	-0.316162	
3690	-0.310974	
3690.5	-0.306396	
3691	-0.301514	
3691.5	-0.296326	
3692	-0.292053	
3692.5	-0.28656	
3693	-0.281677	
3693.5	-0.278015	
3694	-0.276184	
3694.5	-0.271912	
3695	-0.267029	
3695.5	-0.262146	
3696	-0.256958	
3696.5	-0.252075	
3697	-0.247498	
3697.5	-0.24231	
3698	-0.237732	
3698.5	-0.231934	
3699	-0.227356	
3699.5	-0.223083	
3700	-0.217896	
