15:52:32.981 -> 1111
15:52:32.994 -> 1116
15:52:33.052 -> 1128
15:52:33.124 -> 1141
15:52:33.161 -> 1143
15:52:33.236 -> 1150
15:52:33.274 -> 1153
15:52:33.348 -> 1154
15:52:33.416 -> 1146
15:52:33.454 -> 1118
15:52:33.523 -> 1125
15:52:33.595 -> 1137
15:52:33.632 -> 1147
15:52:33.708 -> 1153
15:52:33.780 -> 1161
15:52:33.818 -> 1168
15:52:33.891 -> 1173
15:52:33.958 -> 1175
15:52:33.997 -> 1175
15:52:34.073 -> 1180
15:52:34.109 -> 1181
15:52:34.180 -> 1174
15:52:34.254 -> 1154
15:52:34.292 -> 1162
15:52:34.369 -> 1171
15:52:34.406 -> 1174
15:52:34.480 -> 1175
15:52:34.553 -> 1177
15:52:34.591 -> 1184
15:52:34.663 -> 1186
15:52:34.739 -> 1188
15:52:34.773 -> 1189
15:52:34.849 -> 1190
15:52:34.887 -> 1193
15:52:34.960 -> 1186
15:52:35.036 -> 1164
15:52:35.074 -> 1173
15:52:35.148 -> 1185
15:52:35.186 -> 1191
15:52:35.262 -> 1191
15:52:35.300 -> 1192
15:52:35.372 -> 1195
15:52:35.446 -> 1196
15:52:35.484 -> 1197
15:52:35.559 -> 1194
15:52:35.600 -> 1199
15:52:35.673 -> 1199
15:52:35.741 -> 1184
15:52:35.779 -> 1167
15:52:35.846 -> 1180
15:52:35.918 -> 1189
15:52:35.959 -> 1193
15:52:36.032 -> 1192
15:52:36.100 -> 1197
15:52:36.134 -> 1199
15:52:36.201 -> 1200
15:52:36.276 -> 1202
15:52:36.348 -> 1199
15:52:36.382 -> 1202
15:52:36.454 -> 1196
15:52:36.525 -> 1169
15:52:36.558 -> 1175
15:52:36.634 -> 1185
15:52:36.672 -> 1191
15:52:36.748 -> 1191
15:52:36.824 -> 1193
15:52:36.862 -> 1192
15:52:36.935 -> 1197
15:52:36.968 -> 1198
15:52:37.044 -> 1198
15:52:37.120 -> 1199
15:52:37.158 -> 1199
15:52:37.230 -> 1179
15:52:37.268 -> 1166
15:52:37.344 -> 1176
15:52:37.420 -> 1188
15:52:37.453 -> 1188
15:52:37.528 -> 1189
15:52:37.565 -> 1190
15:52:37.637 -> 1190
15:52:37.705 -> 1188
15:52:37.777 -> 1185
15:52:37.811 -> 1185
15:52:37.887 -> 1184
15:52:37.920 -> 1184
15:52:37.993 -> 1163
15:52:38.065 -> 1155
15:52:38.137 -> 1164
15:52:38.175 -> 1170
15:52:38.251 -> 1172
15:52:38.287 -> 1169
15:52:38.363 -> 1171
15:52:38.400 -> 1171
15:52:38.472 -> 1175
15:52:38.542 -> 1173
15:52:38.580 -> 1172
15:52:38.651 -> 1172
15:52:38.723 -> 1168
15:52:38.760 -> 1139
15:52:38.836 -> 1138
15:52:38.874 -> 1147
15:52:38.951 -> 1153
15:52:39.023 -> 1151
15:52:39.059 -> 1152
15:52:39.130 -> 1157
15:52:39.203 -> 1158
15:52:39.238 -> 1161
15:52:39.310 -> 1166
15:52:39.386 -> 1169
15:52:39.424 -> 1167
15:52:39.500 -> 1135
15:52:39.535 -> 1128
15:52:39.607 -> 1136
15:52:39.684 -> 1139
15:52:39.717 -> 1133
15:52:39.793 -> 1132
15:52:39.831 -> 1140
15:52:39.903 -> 1144
15:52:39.976 -> 1152
15:52:40.011 -> 1153
15:52:40.082 -> 1158
15:52:40.158 -> 1158
15:52:40.195 -> 1141
15:52:40.271 -> 1134
15:52:40.342 -> 1151
15:52:40.375 -> 1150
15:52:40.446 -> 1154
15:52:40.484 -> 1149
15:52:40.561 -> 1151
15:52:40.636 -> 1154
15:52:40.673 -> 1151
15:52:40.749 -> 1152
15:52:40.783 -> 1154
15:52:40.860 -> 1156
15:52:40.929 -> 1125
15:52:40.965 -> 1117
15:52:41.037 -> 1118
15:52:41.109 -> 1122
15:52:41.147 -> 1123
15:52:41.218 -> 1122
15:52:41.295 -> 1126
15:52:41.333 -> 1132
15:52:41.404 -> 1131
15:52:41.442 -> 1136
15:52:41.517 -> 1137
15:52:41.592 -> 1139
15:52:41.626 -> 1118
15:52:41.698 -> 1106
15:52:41.771 -> 1108
15:52:41.805 -> 1109
15:52:41.876 -> 1111
15:52:41.914 -> 1111
15:52:41.990 -> 1113
15:52:42.066 -> 1120
15:52:42.102 -> 1121
15:52:42.178 -> 1123
15:52:42.214 -> 1125
15:52:42.290 -> 1123
15:52:42.366 -> 1103
15:52:42.404 -> 1091
15:52:42.476 -> 1094
15:52:42.509 -> 1100
15:52:42.579 -> 1101
15:52:42.650 -> 1099
15:52:42.723 -> 1101
15:52:42.761 -> 1105
15:52:42.832 -> 1111
15:52:42.869 -> 1110
15:52:42.941 -> 1113
15:52:43.013 -> 1114
15:52:43.047 -> 1087
15:52:43.122 -> 1084
15:52:43.198 -> 1089
15:52:43.233 -> 1089
15:52:43.309 -> 1091
15:52:43.347 -> 1088
15:52:43.423 -> 1094
15:52:43.495 -> 1096
15:52:43.529 -> 1103
15:52:43.601 -> 1099
15:52:43.677 -> 1102
15:52:43.715 -> 1098
15:52:43.791 -> 1072
15:52:43.826 -> 1075
15:52:43.897 -> 1075
15:52:43.969 -> 1079
15:52:44.005 -> 1083
15:52:44.081 -> 1079
15:52:44.154 -> 1085
15:52:44.191 -> 1090
15:52:44.267 -> 1094
15:52:44.302 -> 1097
15:52:44.378 -> 1096
15:52:44.450 -> 1094
15:52:44.487 -> 1068
15:52:44.554 -> 1066
15:52:44.630 -> 1071
15:52:44.668 -> 1074
15:52:44.744 -> 1068
15:52:44.780 -> 1067
15:52:44.856 -> 1072
15:52:44.933 -> 1079
15:52:44.971 -> 1083
15:52:45.047 -> 1086
15:52:45.083 -> 1089
15:52:45.157 -> 1093
15:52:45.194 -> 1068
15:52:45.270 -> 1061
15:52:45.346 -> 1064
15:52:45.384 -> 1071
15:52:45.460 -> 1072
15:52:45.494 -> 1069
15:52:45.569 -> 1072
15:52:45.641 -> 1077
15:52:45.677 -> 1081
15:52:45.754 -> 1084
15:52:45.825 -> 1085
15:52:45.863 -> 1089
15:52:45.935 -> 1082
15:52:45.973 -> 1059
15:52:46.052 -> 1065
15:52:46.088 -> 1071
15:52:46.161 -> 1075
15:52:46.237 -> 1074
15:52:46.271 -> 1076
15:52:46.348 -> 1082
15:52:46.386 -> 1088
15:52:46.462 -> 1090
15:52:46.533 -> 1092
15:52:46.567 -> 1094
15:52:46.644 -> 1093
15:52:46.717 -> 1066
15:52:46.753 -> 1060
15:52:46.829 -> 1073
15:52:46.863 -> 1079
15:52:46.940 -> 1079
15:52:47.012 -> 1079
15:52:47.051 -> 1084
15:52:47.123 -> 1084
15:52:47.161 -> 1088
15:52:47.237 -> 1087
15:52:47.310 -> 1086
15:52:47.343 -> 1082
15:52:47.420 -> 1050
15:52:47.492 -> 1049
15:52:47.530 -> 1053
15:52:47.597 -> 1057
15:52:47.635 -> 1055
15:52:47.711 -> 1055
15:52:47.783 -> 1055
15:52:47.818 -> 1057
15:52:47.890 -> 1057
15:52:47.965 -> 1059
15:52:48.000 -> 1062
15:52:48.073 -> 1059
15:52:48.149 -> 1043
15:52:48.185 -> 1045
15:52:48.261 -> 1049
15:52:48.298 -> 1051
15:52:48.374 -> 1053
15:52:48.412 -> 1058
15:52:48.488 -> 1064
15:52:48.564 -> 1069
15:52:48.601 -> 1072
15:52:48.677 -> 1073
15:52:48.713 -> 1075
15:52:48.790 -> 1074
15:52:48.828 -> 1051
15:52:48.904 -> 1052
15:52:48.976 -> 1063
15:52:49.010 -> 1070
15:52:49.078 -> 1072
15:52:49.133 -> 1072
15:52:49.200 -> 1074
15:52:49.276 -> 1075
15:52:49.314 -> 1075
15:52:49.386 -> 1076
15:52:49.457 -> 1076
15:52:49.494 -> 1078
15:52:49.566 -> 1071
15:52:49.600 -> 1050
15:52:49.677 -> 1057
15:52:49.752 -> 1065
15:52:49.786 -> 1065
15:52:49.861 -> 1063
15:52:49.937 -> 1064
15:52:49.970 -> 1069
15:52:50.042 -> 1071
15:52:50.113 -> 1073
15:52:50.151 -> 1074
15:52:50.227 -> 1074
15:52:50.265 -> 1073
15:52:50.341 -> 1049
15:52:50.379 -> 1050
15:52:50.455 -> 1059
15:52:50.528 -> 1065
15:52:50.562 -> 1066
15:52:50.638 -> 1070
15:52:50.711 -> 1073
15:52:50.745 -> 1082
15:52:50.821 -> 1086
15:52:50.855 -> 1090
15:52:50.927 -> 1091
15:52:51.003 -> 1092
15:52:51.037 -> 1091
15:52:51.105 -> 1091
15:52:51.177 -> 1093
15:52:51.249 -> 1095
15:52:51.287 -> 1096
15:52:51.359 -> 1096
15:52:51.396 -> 1095
15:52:51.469 -> 1095
15:52:51.544 -> 1096
15:52:51.579 -> 1096
15:52:51.650 -> 1097
15:52:51.688 -> 1096
15:52:51.765 -> 1094
15:52:51.839 -> 1090
15:52:51.874 -> 1089
15:52:51.946 -> 1091
15:52:52.023 -> 1091
15:52:52.057 -> 1087
15:52:52.130 -> 1087
15:52:52.168 -> 1086
15:52:52.244 -> 1085
15:52:52.315 -> 1087
15:52:52.351 -> 1087
15:52:52.421 -> 1087
15:52:52.497 -> 1086
15:52:52.532 -> 1080
15:52:52.608 -> 1067
15:52:52.646 -> 1068
15:52:52.722 -> 1073
15:52:52.797 -> 1070
15:52:52.835 -> 1072
15:52:52.905 -> 1077
15:52:52.975 -> 1078
15:52:53.012 -> 1079
15:52:53.085 -> 1080
15:52:53.155 -> 1081
15:52:53.192 -> 1078
15:52:53.268 -> 1077
15:52:53.305 -> 1054
15:52:53.381 -> 1036
15:52:53.456 -> 1041
15:52:53.489 -> 1045
15:52:53.565 -> 1040
15:52:53.598 -> 1040
15:52:53.675 -> 1043
15:52:53.747 -> 1046
15:52:53.780 -> 1045
15:52:53.856 -> 1046
15:52:53.933 -> 1045
15:52:53.969 -> 1049
15:52:54.046 -> 1052
15:52:54.083 -> 1048
15:52:54.157 -> 1032
15:52:54.193 -> 1038
15:52:54.269 -> 1045
15:52:54.342 -> 1049
15:52:54.379 -> 1051
15:52:54.455 -> 1052
15:52:54.528 -> 1054
15:52:54.563 -> 1054
15:52:54.632 -> 1054
15:52:54.669 -> 1056
15:52:54.746 -> 1055
15:52:54.820 -> 1053
15:52:54.857 -> 1056
15:52:54.933 -> 1047
15:52:54.969 -> 1034
15:52:55.046 -> 1045
15:52:55.122 -> 1051
15:52:55.157 -> 1052
15:52:55.234 -> 1053
15:52:55.269 -> 1054
15:52:55.345 -> 1056
15:52:55.419 -> 1056
15:52:55.455 -> 1056
15:52:55.528 -> 1055
15:52:55.565 -> 1056
15:52:55.637 -> 1054
15:52:55.710 -> 1052
15:52:55.744 -> 1032
15:52:55.821 -> 1032
15:52:55.896 -> 1040
15:52:55.930 -> 1045
15:52:56.003 -> 1045
15:52:56.078 -> 1047
15:52:56.112 -> 1048
15:52:56.185 -> 1050
15:52:56.222 -> 1051
15:52:56.293 -> 1049
15:52:56.369 -> 1049
15:52:56.404 -> 1051
15:52:56.480 -> 1040
15:52:56.518 -> 1023
15:52:56.594 -> 1031
15:52:56.671 -> 1038
15:52:56.706 -> 1041
15:52:56.782 -> 1039
15:52:56.817 -> 1043
15:52:56.893 -> 1045
15:52:56.965 -> 1044
15:52:57.003 -> 1048
15:52:57.079 -> 1048
15:52:57.114 -> 1047
15:52:57.190 -> 1048
15:52:57.261 -> 1029
15:52:57.299 -> 1024
15:52:57.376 -> 1036
15:52:57.448 -> 1038
15:52:57.486 -> 1037
15:52:57.562 -> 1038
15:52:57.597 -> 1040
15:52:57.673 -> 1040
15:52:57.709 -> 1043
15:52:57.782 -> 1042
15:52:57.854 -> 1042
15:52:57.891 -> 1044
15:52:57.962 -> 1041
15:52:58.033 -> 1020
15:52:58.071 -> 1022
15:52:58.146 -> 1028
15:52:58.218 -> 1032
15:52:58.256 -> 1034
15:52:58.332 -> 1035
15:52:58.405 -> 1038
15:52:58.442 -> 1039
15:52:58.518 -> 1040
15:52:58.553 -> 1040
15:52:58.626 -> 1041
15:52:58.703 -> 1039
15:52:58.740 -> 1035
15:52:58.817 -> 1015
15:52:58.853 -> 1018
15:52:58.924 -> 1025
15:52:58.996 -> 1030
15:52:59.034 -> 1031
15:52:59.110 -> 1031
15:52:59.148 -> 1034
15:52:59.223 -> 1036
15:52:59.299 -> 1036
15:52:59.333 -> 1038
15:52:59.409 -> 1038
15:52:59.447 -> 1037
15:52:59.523 -> 1034
15:52:59.598 -> 1011
15:52:59.634 -> 1013
15:52:59.708 -> 1019
15:52:59.745 -> 1023
15:52:59.822 -> 1023
15:52:59.896 -> 1026
15:52:59.932 -> 1027
15:53:00.004 -> 1030
15:53:00.039 -> 1030
15:53:00.115 -> 1033
15:53:00.191 -> 1031
15:53:00.225 -> 1034
15:53:00.301 -> 1033
15:53:00.373 -> 1014
15:53:00.408 -> 1012
15:53:00.480 -> 1019
15:53:00.518 -> 1025
15:53:00.594 -> 1027
15:53:00.666 -> 1028
15:53:00.704 -> 1032
15:53:00.776 -> 1034
15:53:00.813 -> 1035
15:53:00.888 -> 1037
15:53:00.963 -> 1038
15:53:01.001 -> 1039
15:53:01.077 -> 1037
15:53:01.149 -> 1029
15:53:01.187 -> 1033
15:53:01.264 -> 1036
15:53:01.297 -> 1038
15:53:01.368 -> 1038
15:53:01.442 -> 1039
15:53:01.478 -> 1039
15:53:01.554 -> 1039
15:53:01.592 -> 1038
15:53:01.668 -> 1036
15:53:01.742 -> 1036
15:53:01.780 -> 1034
15:53:01.856 -> 1032
15:53:01.890 -> 1015
15:53:01.967 -> 1025
15:53:02.040 -> 1035
15:53:02.074 -> 1039
15:53:02.148 -> 1040
15:53:02.186 -> 1043
15:53:02.262 -> 1043
15:53:02.333 -> 1043
15:53:02.371 -> 1044
15:53:02.447 -> 1044
15:53:02.483 -> 1045
15:53:02.550 -> 1049
15:53:02.626 -> 1049
15:53:02.664 -> 1045
15:53:02.741 -> 1037
15:53:02.817 -> 1045
15:53:02.855 -> 1048
15:53:02.923 -> 1048
15:53:02.961 -> 1049
15:53:03.037 -> 1048
15:53:03.111 -> 1048
15:53:03.145 -> 1050
15:53:03.221 -> 1050
15:53:03.295 -> 1049
15:53:03.329 -> 1050
15:53:03.400 -> 1048
15:53:03.438 -> 1049
15:53:03.515 -> 1046
15:53:03.590 -> 1030
15:53:03.626 -> 1036
15:53:03.698 -> 1041
15:53:03.769 -> 1042
15:53:03.807 -> 1043
15:53:03.883 -> 1043
15:53:03.917 -> 1045
15:53:03.987 -> 1045
15:53:04.059 -> 1044
15:53:04.093 -> 1044
15:53:04.160 -> 1044
15:53:04.236 -> 1044
15:53:04.273 -> 1045
15:53:04.350 -> 1045
15:53:04.424 -> 1031
15:53:04.462 -> 1030
15:53:04.531 -> 1044
15:53:04.606 -> 1044
15:53:04.644 -> 1048
15:53:04.720 -> 1054
15:53:04.758 -> 1056
15:53:04.834 -> 1057
15:53:04.868 -> 1056
15:53:04.944 -> 1053
15:53:05.015 -> 1053
15:53:05.051 -> 1052
15:53:05.125 -> 1055
15:53:05.198 -> 1053
15:53:05.236 -> 1050
15:53:05.309 -> 1051
15:53:05.382 -> 1052
15:53:05.417 -> 1054
15:53:05.488 -> 1053
15:53:05.561 -> 1053
15:53:05.594 -> 1052
15:53:05.669 -> 1052
15:53:05.741 -> 1051
15:53:05.775 -> 1053
15:53:05.847 -> 1052
15:53:05.881 -> 1052
15:53:05.958 -> 1052
15:53:06.030 -> 1049
15:53:06.065 -> 1051
15:53:06.142 -> 1051
15:53:06.216 -> 1051
15:53:06.251 -> 1050
15:53:06.327 -> 1049
15:53:06.365 -> 1052
15:53:06.441 -> 1050
15:53:06.513 -> 1050
15:53:06.548 -> 1050
15:53:06.620 -> 1051
15:53:06.658 -> 1053
15:53:06.734 -> 1050
15:53:06.810 -> 1046
15:53:06.844 -> 1041
15:53:06.920 -> 1048
15:53:06.954 -> 1047
15:53:07.022 -> 1048
15:53:07.098 -> 1049
15:53:07.134 -> 1052
15:53:07.206 -> 1047
15:53:07.282 -> 1050
15:53:07.319 -> 1051
15:53:07.395 -> 1050
15:53:07.433 -> 1050
15:53:07.510 -> 1049
15:53:07.586 -> 1034
15:53:07.622 -> 1033
15:53:07.698 -> 1043
15:53:07.732 -> 1046
15:53:07.807 -> 1045
15:53:07.883 -> 1048
15:53:07.920 -> 1048
15:53:07.989 -> 1045
15:53:08.064 -> 1044
15:53:08.100 -> 1043
15:53:08.169 -> 1043
15:53:08.240 -> 1040
15:53:08.277 -> 1034
15:53:08.349 -> 1025
15:53:08.387 -> 1025
15:53:08.463 -> 1032
15:53:08.537 -> 1034
15:53:08.572 -> 1035
15:53:08.648 -> 1035
15:53:08.719 -> 1037
15:53:08.758 -> 1039
15:53:08.829 -> 1040
15:53:08.867 -> 1041
15:53:08.944 -> 1040
15:53:09.016 -> 1041
15:53:09.054 -> 1040
15:53:09.125 -> 1036
15:53:09.159 -> 1041
15:53:09.231 -> 1040
15:53:09.303 -> 1041
15:53:09.341 -> 1041
15:53:09.417 -> 1042
15:53:09.492 -> 1041
15:53:09.528 -> 1045
15:53:09.605 -> 1043
15:53:09.638 -> 1044
15:53:09.708 -> 1044
15:53:09.785 -> 1041
15:53:09.823 -> 1038
15:53:09.899 -> 1039
15:53:09.934 -> 1041
15:53:10.008 -> 1044
15:53:10.082 -> 1043
15:53:10.120 -> 1042
15:53:10.190 -> 1042
15:53:10.267 -> 1043
15:53:10.305 -> 1043
15:53:10.376 -> 1047
15:53:10.448 -> 1045
15:53:10.486 -> 1045
15:53:10.562 -> 1045
15:53:10.595 -> 1030
15:53:10.668 -> 1030
15:53:10.744 -> 1036
15:53:10.778 -> 1041
15:53:10.855 -> 1043
15:53:10.892 -> 1041
15:53:10.964 -> 1045
15:53:11.035 -> 1046
15:53:11.073 -> 1045
15:53:11.145 -> 1044
15:53:11.216 -> 1046
15:53:11.250 -> 1050
15:53:11.326 -> 1045
15:53:11.370 -> 1040
15:53:11.441 -> 1028
15:53:11.517 -> 1034
15:53:11.555 -> 1041
15:53:11.626 -> 1041
15:53:11.696 -> 1047
15:53:11.734 -> 1047
15:53:11.802 -> 1050
15:53:11.874 -> 1049
15:53:11.910 -> 1052
15:53:11.986 -> 1053
15:53:12.024 -> 1056
15:53:12.100 -> 1057
15:53:12.174 -> 1057
15:53:12.207 -> 1047
15:53:12.283 -> 1048
15:53:12.321 -> 1050
15:53:12.398 -> 1054
15:53:12.474 -> 1054
15:53:12.512 -> 1057
15:53:12.584 -> 1061
15:53:12.622 -> 1060
15:53:12.694 -> 1062
15:53:12.771 -> 1060
15:53:12.809 -> 1056
15:53:12.885 -> 1060
15:53:12.919 -> 1060
15:53:12.995 -> 1059
15:53:13.033 -> 1052
15:53:13.109 -> 1059
15:53:13.182 -> 1059
15:53:13.220 -> 1058
15:53:13.297 -> 1058
15:53:13.334 -> 1059
15:53:13.411 -> 1061
15:53:13.485 -> 1061
15:53:13.522 -> 1062
15:53:13.598 -> 1062
15:53:13.635 -> 1062
15:53:13.703 -> 1064
15:53:13.775 -> 1059
15:53:13.813 -> 1052
15:53:13.890 -> 1049
15:53:13.927 -> 1058
15:53:13.997 -> 1057
15:53:14.069 -> 1062
15:53:14.140 -> 1060
15:53:14.177 -> 1061
15:53:14.250 -> 1062
15:53:14.285 -> 1061
15:53:14.362 -> 1064
15:53:14.438 -> 1064
15:53:14.475 -> 1064
15:53:14.548 -> 1062
15:53:14.583 -> 1057
15:53:14.659 -> 1053
15:53:14.736 -> 1059
15:53:14.769 -> 1063
15:53:14.836 -> 1063
15:53:14.910 -> 1064
15:53:14.948 -> 1065
15:53:15.024 -> 1066
15:53:15.058 -> 1068
15:53:15.134 -> 1068
15:53:15.206 -> 1066
15:53:15.245 -> 1067
15:53:15.317 -> 1070
15:53:15.390 -> 1067
15:53:15.423 -> 1064
15:53:15.499 -> 1068
15:53:15.537 -> 1068
15:53:15.613 -> 1072
15:53:15.686 -> 1071
15:53:15.722 -> 1072
15:53:15.799 -> 1074
15:53:15.870 -> 1075
15:53:15.908 -> 1074
15:53:15.980 -> 1076
15:53:16.015 -> 1075
15:53:16.091 -> 1072
15:53:16.166 -> 1070
15:53:16.201 -> 1068
15:53:16.277 -> 1069
15:53:16.315 -> 1070
15:53:16.387 -> 1072
15:53:16.460 -> 1071
15:53:16.497 -> 1071
15:53:16.573 -> 1070
15:53:16.611 -> 1072
15:53:16.687 -> 1069
15:53:16.762 -> 1069
15:53:16.800 -> 1068
15:53:16.871 -> 1068
15:53:16.943 -> 1070
15:53:16.981 -> 1066
15:53:17.054 -> 1068
15:53:17.087 -> 1069
15:53:17.164 -> 1069
15:53:17.231 -> 1071
15:53:17.268 -> 1068
15:53:17.341 -> 1066
15:53:17.413 -> 1067
15:53:17.451 -> 1065
15:53:17.527 -> 1063
15:53:17.565 -> 1066
15:53:17.637 -> 1065
15:53:17.712 -> 1062
15:53:17.746 -> 1042
15:53:17.823 -> 1037
15:53:17.895 -> 1045
15:53:17.929 -> 1051
15:53:18.003 -> 1053
15:53:18.041 -> 1054
15:53:18.117 -> 1057
15:53:18.193 -> 1058
15:53:18.228 -> 1061
15:53:18.300 -> 1058
15:53:18.371 -> 1060
15:53:18.408 -> 1061
15:53:18.484 -> 1056
15:53:18.522 -> 1037
15:53:18.599 -> 1038
15:53:18.636 -> 1047
15:53:18.705 -> 1051
15:53:18.781 -> 1056
15:53:18.815 -> 1058
15:53:18.892 -> 1059
15:53:18.968 -> 1061
15:53:19.006 -> 1060
15:53:19.082 -> 1062
15:53:19.118 -> 1061
15:53:19.192 -> 1063
15:53:19.264 -> 1059
15:53:19.302 -> 1055
15:53:19.378 -> 1061
15:53:19.416 -> 1062
15:53:19.488 -> 1064
15:53:19.561 -> 1063
15:53:19.598 -> 1064
15:53:19.670 -> 1064
15:53:19.708 -> 1066
15:53:19.783 -> 1065
15:53:19.857 -> 1067
15:53:19.894 -> 1068
15:53:19.970 -> 1069
15:53:20.009 -> 1062
15:53:20.081 -> 1062
15:53:20.157 -> 1063
15:53:20.193 -> 1066
15:53:20.265 -> 1064
15:53:20.331 -> 1066
15:53:20.368 -> 1068
15:53:20.440 -> 1068
15:53:20.516 -> 1066
15:53:20.554 -> 1065
15:53:20.630 -> 1067
15:53:20.666 -> 1067
15:53:20.734 -> 1066
15:53:20.810 -> 1059
15:53:20.848 -> 1061
15:53:20.925 -> 1062
15:53:20.998 -> 1063
15:53:21.035 -> 1064
15:53:21.111 -> 1062
15:53:21.149 -> 1063
15:53:21.221 -> 1062
15:53:21.293 -> 1065
15:53:21.331 -> 1064
15:53:21.404 -> 1065
15:53:21.441 -> 1064
15:53:21.517 -> 1058
15:53:21.593 -> 1056
15:53:21.631 -> 1057
15:53:21.707 -> 1063
15:53:21.742 -> 1061
15:53:21.818 -> 1065
15:53:21.856 -> 1064
15:53:21.932 -> 1063
15:53:22.005 -> 1065
15:53:22.039 -> 1065
15:53:22.115 -> 1063
15:53:22.189 -> 1064
15:53:22.227 -> 1063
15:53:22.303 -> 1053
15:53:22.341 -> 1056
15:53:22.420 -> 1061
15:53:22.452 -> 1063
15:53:22.525 -> 1060
15:53:22.601 -> 1062
15:53:22.636 -> 1063
15:53:22.712 -> 1064
15:53:22.780 -> 1062
15:53:22.818 -> 1064
15:53:22.894 -> 1062
15:53:22.932 -> 1064
15:53:23.003 -> 1056
15:53:23.076 -> 1058
15:53:23.114 -> 1062
15:53:23.181 -> 1062
15:53:23.252 -> 1063
15:53:23.286 -> 1062
15:53:23.362 -> 1065
15:53:23.439 -> 1066
15:53:23.476 -> 1066
15:53:23.547 -> 1067
15:53:23.584 -> 1067
15:53:23.654 -> 1063
15:53:23.731 -> 1062
15:53:23.765 -> 1065
15:53:23.836 -> 1067
15:53:23.908 -> 1068
15:53:23.946 -> 1065
15:53:24.023 -> 1067
15:53:24.061 -> 1069
15:53:24.133 -> 1069
15:53:24.206 -> 1071
15:53:24.242 -> 1074
15:53:24.318 -> 1072
15:53:24.390 -> 1074
15:53:24.426 -> 1075
15:53:24.503 -> 1076
15:53:24.575 -> 1080
15:53:24.613 -> 1083
15:53:24.685 -> 1085
15:53:24.718 -> 1085
15:53:24.789 -> 1087
15:53:24.862 -> 1088
15:53:24.900 -> 1090
15:53:24.976 -> 1087
15:53:25.045 -> 1089
15:53:25.083 -> 1090
