Timestamp,415nm_filtered,415nm_peak,445nm_filtered,445nm_peak,480nm_filtered,480nm_peak,515nm_filtered,515nm_peak,555nm_filtered,555nm_peak,590nm_filtered,590nm_peak,630nm_filtered,630nm_peak,680nm_filtered,680nm_peak,NIR_filtered,NIR_peak,Fused_filtered,Fused_peak
2025-03-04 10:41:48.819,,0,,0,,0,,0,,0,,0,,0,,0,,0,,0
2025-03-04 10:41:49.009,,0,,0,,0,,0,,0,,0,,0,,0,,0,,0
2025-03-04 10:41:49.059,,0,,0,,0,,0,,0,,0,,0,,0,,0,,0
2025-03-04 10:41:49.110,,0,,0,,0,,0,,0,,0,,0,,0,,0,,0
2025-03-04 10:41:49.160,,0,,0,,0,,0,,0,,0,,0,,0,,0,,0
2025-03-04 10:41:49.211,,0,,0,,0,,0,,0,,0,,0,,0,,0,,0
2025-03-04 10:41:49.260,,0,,0,,0,,0,,0,,0,,0,,0,,0,,0
2025-03-04 10:41:49.311,,0,,0,,0,,0,,0,,0,,0,,0,,0,,0
2025-03-04 10:41:49.361,,0,,0,,0,,0,,0,,0,,0,,0,,0,,0
2025-03-04 10:41:49.411,,0,,0,,0,,0,,0,,0,,0,,0,,0,,0
2025-03-04 10:41:49.460,,0,,0,,0,,0,,0,,0,,0,,0,,0,,0
2025-03-04 10:41:49.511,,0,,0,,0,,0,,0,,0,,0,,0,,0,,0
2025-03-04 10:41:51.602,0.6024263885131571,0,0.5234351575311059,0,0.47408953312731783,0,0.552598392919136,0,0.4742799882509545,0,0.4211192941877469,0,,0,0.355467926397596,0,0.49221750701079786,0,0.3679764550856508,0
2025-03-04 10:41:51.670,0.4605674063504518,0,0.49034238849806433,0,0.46491388529739347,0,0.5628855611955891,0,0.46403517879709555,0,0.44583845790268517,0,,0,0.4490752559008447,0,0.5202226737673925,0,0.3501286506601328,0
2025-03-04 10:41:51.739,0.5375322362226792,0,0.48725548555671677,0,0.5304017622040724,0,0.5484149286831067,0,0.4845092564040149,0,0.4943623198790309,0,,0,0.40141342935691454,0,0.4341549996617798,0,0.333966513890519,0
2025-03-04 10:41:51.807,0.5308538087958912,0,0.487469450774391,0,0.5050275545353219,0,0.5489511524524334,0,0.5385818229158604,0,0.5159021631020702,0,,0,0.523836441167785,0,0.5072103276066827,0,0.3257549733375227,0
2025-03-04 10:41:51.876,0.5176263587209071,0,0.49536934061211,0,0.48300174010455793,0,0.5187749398967858,0,0.42711532335736135,0,0.4723898584038174,0,,0,0.45353396395035134,0,0.4497511281617644,0,0.339156753210416,0
2025-03-04 10:41:51.944,0.5141840524470119,0,0.4421204384447539,0,0.42768708241909925,0,0.4214532657681385,0,0.3909963362220105,0,0.39457290560608693,0,,0,0.4387536692612363,0,0.47005498831457554,0,0.38967938901276866,0
2025-03-04 10:41:52.012,0.538815158207092,0,0.43378196397734053,0,0.3738070453445772,0,0.40736168752264507,0,0.43149922290062254,0,0.42673888286905004,0,,0,0.4288773585314874,0,0.5024767382934038,0,0.47137752664959587,0
2025-03-04 10:41:52.081,0.5625916156142223,0,0.5061894664309815,0,0.4472244500266872,0,0.44034814175730824,0,0.467390206055432,0,0.4451652853914252,0,,0,0.4344087110533722,0,0.519130957370062,0,0.5455801985583771,0
2025-03-04 10:41:52.150,0.595659820634839,0,0.5662577766714992,0,0.4677300674158199,0,0.47658802892135094,0,0.5050304755432525,0,0.4978140680438704,0,,0,0.4620819975432821,0,0.5362587482382535,0,0.5689861196096483,0
2025-03-04 10:41:52.219,0.6239086148190711,0,0.6308699139966567,0,0.5248782176917121,0,0.5327838583821702,0,0.48692299115602206,0,0.4785860095606566,0,,0,0.49872968220690794,0,0.5199659482234497,0,0.5367775717190475,0
2025-03-04 10:41:52.287,0.5649676341201391,0,0.5971484691353008,0,0.5189312191077508,0,0.545345818735099,0,0.4303070795726161,0,0.4399065470613605,0,,0,0.47546446699258565,0,0.46476887091939056,0,0.492738564909802,0
2025-03-04 10:41:52.355,0.5726729469753805,0,0.5419397085938669,0,0.45450520164083513,0,0.49293597668117595,0,0.4767585070754048,0,0.5017780659819859,0,,0,0.5010864816945784,0,0.4773478091434778,0,0.4675219581504465,0
2025-03-04 10:41:52.424,0.4368414031459435,0,0.5146088726817696,0,0.44187118795325275,0,0.5170535785927105,0,0.48337591537433067,0,0.4512882258595422,0,,0,0.3737648013754871,0,0.44811184075727156,0,0.4591542767950532,0
2025-03-04 10:41:52.492,0.39495573960381886,0,0.5569385367297658,0,0.4770328902830645,0,0.5280381659124315,0,0.45215381416434436,0,0.4191320379364481,0,,0,0.36498717882620807,0,0.39455366033197864,0,0.4549798573832543,0
2025-03-04 10:41:52.561,0.3754737451439399,0,0.47227377367545,0,0.4163580683931161,0,0.4519610367080188,0,0.33500889690020136,0,0.3345036374805016,0,,0,0.372857422177498,0,0.36653371277151514,0,0.4505148658244916,0
2025-03-04 10:41:52.630,0.39800675055443413,0,0.447859062073607,0,0.3703055359960522,0,0.4400376999908551,0,0.3498653538912871,0,0.33529522838876713,0,,0,0.3200410609712342,0,0.30422204209564047,0,0.445951639871435,0
2025-03-04 10:41:52.698,0.3920586193821386,0,0.38903633765370754,0,0.4379235355922194,0,0.4581601522890961,0,0.4500791969945163,0,0.4576324415050974,0,,0,0.47177010284539844,0,0.47731170730471745,0,0.44144209611411106,0
2025-03-04 10:41:52.766,0.46061930720984834,0,0.4398221084390071,0,0.5206145628980263,0,0.5334616866662364,0,0.4812036851646965,0,0.5081439584321105,0,,0,0.5679432352966811,0,0.5106798659652818,0,0.4371566580926085,0
2025-03-04 10:41:52.835,0.5567218097634955,0,0.4614574154282925,0,0.5341925205772037,0,0.5976834351058838,0,0.5417933876157235,0,0.5319576744043024,0,,0,0.5396579299589073,0,0.5487261377979822,0,0.4328980025452923,0
2025-03-04 10:41:52.903,0.5404008247002967,0,0.48712373851554935,0,0.5267184513300748,0,0.6008774956787388,0,0.5038118342091945,0,0.47602490253198576,0,,0,0.4737474475978081,0,0.5938227370844311,0,0.42892676212994213,0
2025-03-04 10:41:52.971,0.5092100559458702,0,0.6998005972204395,0,0.5164680273450714,0,0.5880663672737342,0,0.4794861426620987,0,0.4666661177591902,0,,0,0.44094054726725823,0,0.5882104006632288,0,0.42526441430918804,0
2025-03-04 10:41:53.040,0.43921128254149966,0,0.5321376954101843,0,0.4936045520056597,0,0.565575952770421,0,0.5087055177630329,0,0.5203516662697178,0,,0,0.5165555650088626,0,0.5832154275723211,0,0.4219023584033013,0
2025-03-04 10:41:53.108,0.4946830337743886,0,0.548202145471371,0,0.5235897714299409,0,0.5562562224932214,0,0.5135976255895602,0,0.5119731473172457,0,,0,0.4979278820637109,0,0.5806935661810264,0,0.41889559703669793,0
2025-03-04 10:41:53.178,0.4682101014873421,0,0.6288073023953441,0,0.5295463891158445,0,0.5597140738062875,0,0.49456941215059436,0,0.46092528665512955,0,,0,0.4124773832422456,0,0.3949517013246136,0,0.41620301084260236,0
2025-03-04 10:41:53.246,0.4759115564187324,0,0.5593161245942991,0,0.45414307802599374,0,0.4716843081046142,0,0.4080789363581595,0,0.3412360457445962,0,,0,0.4439138461434393,0,0.34801590659130777,0,0.41396919124436654,0
2025-03-04 10:41:53.314,0.5036308662373866,0,0.398483012501608,0,0.40890953670867514,0,0.44889541638516733,0,0.415957415326026,0,0.3956036767315756,0,,0,0.3989691588439704,0,0.3910525789279079,0,0.41207265368611834,0
2025-03-04 10:41:53.383,0.5116272042428485,0,0.35984158883911305,0,0.36988650414663865,0,0.43782626867721186,0,0.44216851650142214,0,0.4053844026645777,0,,0,0.39247046559506193,0,0.3970502867086865,0,0.41055540840770743,0
2025-03-04 10:41:53.451,0.5378067461021425,0,0.43052726930868035,0,0.4507509351541724,0,0.49750902334559305,0,0.47432422875229646,0,0.4368387857057547,0,,0,0.4303769464860924,0,0.39268321860666133,0,0.4094117431969362,0
2025-03-04 10:41:53.519,0.5570916000248244,0,0.4400880795842647,0,0.445057122840046,0,0.5019751776795797,0,0.5067051483643563,0,0.4672758683833399,0,,0,0.4427658644359413,0,0.3981158580815264,0,0.4086315541923412,0
2025-03-04 10:41:53.588,0.5581309163200979,0,0.42993843148465916,0,0.4650238451475535,0,0.5205465305962507,0,0.4981444775747588,0,0.4779357021451469,0,,0,0.5115349054138669,0,0.49283191228962875,0,0.408205772281497,0
2025-03-04 10:41:53.657,0.5177599441035536,0,0.6627146396059886,0,0.48232503451737463,0,0.5577477055632613,0,0.46803692278269193,0,0.4497546763832337,0,,0,0.46096262860043397,0,0.47594797337666456,0,0.40814851470612856,0
2025-03-04 10:41:53.725,0.48381249507243274,0,0.621615480645696,0,0.5076878892996323,0,0.5365515952666812,0,0.47349779942648146,0,0.48487760135830743,0,,0,0.6210695759792101,0,0.49235087778446596,0,0.40839144886142165,0
2025-03-04 10:41:53.793,0.46456392442513683,0,0.59782540419933,0,0.5601208688110003,0,0.5267643956685442,0,0.5055814646723198,0,0.5020319834109512,0,,0,0.6090469083211331,0,0.5412941650479124,0,0.40887418703815104,0
2025-03-04 10:41:53.863,0.4774598969605144,0,0.626995072694807,0,0.5366181600096706,0,0.5333368183771253,0,0.48482605737038337,0,0.4609444010243731,0,,0,0.539966728165995,0,0.45108663443441493,0,0.40975751617080225,0
2025-03-04 10:41:53.931,0.4832403304464328,0,0.5462096737369188,0,0.4643393236631881,0,0.49219182705539893,0,0.4209454379349296,0,0.41421114777797813,0,,0,0.5538886755363175,0,0.40905301472675604,0,0.4108028891377347,0
2025-03-04 10:41:54.000,0.4850310053605846,0,0.2782143717029099,0,0.44834043067200285,0,0.46085145989022774,0,0.440654031232153,0,0.4522220968025323,0,,0,0.33629422776668816,0,0.47649060041543506,0,0.4120460627808844,0
2025-03-04 10:41:54.069,0.4877782818887576,0,0.4413625599513265,0,0.4248758944658971,0,0.4711557107007507,0,0.47828188550020606,0,0.47491775922605095,0,,0,0.29915644276963,0,0.4465617953489542,0,0.41350047228057285,0
2025-03-04 10:41:54.138,0.4421862719151842,0,0.531149080687355,0,0.5107612620431731,0,0.5283785861870154,0,0.5037948253975556,0,0.5222359698832781,0,,0,0.42106244306176627,0,0.5376248117317659,0,0.4150812630646132,0
2025-03-04 10:41:54.207,0.4742798250180845,0,0.47133067932830514,0,0.5108695982599152,0,0.527052437447105,0,0.5171280894672601,0,0.47644579370023626,0,,0,0.5804788942527418,0,0.4925410010013358,0,0.4166323908740886,0
2025-03-04 10:41:54.275,0.4798632382423455,0,0.5262443109510544,0,0.466180971985949,0,0.5190710303971646,0,0.46920840522129614,0,0.4271903759236272,0,,0,0.4234295986971861,0,0.5446294995876115,0,0.41816686691018184,0
2025-03-04 10:41:54.343,0.49355995396719665,0,0.4907894698498955,0,0.41533287871808416,0,0.4850303501298726,0,0.5353142100065791,0,0.5103320874353428,0,,0,0.6205516831346032,0,0.5288298931041997,0,0.4198165715669252,0
2025-03-04 10:41:54.412,0.5099393462456976,0,0.5012451369001509,0,0.5262299805847432,0,0.5220999382290605,0,0.4366854851058571,0,0.4486905928424686,0,,0,0.4995878186535677,0,0.5058457062477718,0,0.42150169883742267,0
2025-03-04 10:41:54.480,0.49690599005149905,0,0.4063950762574651,0,0.4431611138319184,0,0.448857143808166,0,0.49135888584334714,0,0.45153392426271255,0,,0,0.47782257691487545,0,0.5022236044587234,0,0.4230559576351302,0
2025-03-04 10:41:54.549,0.48068853456759714,0,0.4111246025339246,0,0.4530357679788946,0,0.4694190249894467,0,0.4754514009186616,0,0.44297486092246635,0,,0,0.48353799513571166,0,0.47557027405208263,0,0.42463849184972424,0
2025-03-04 10:41:54.617,0.4761052905924017,0,0.3954254566575653,0,0.39820068293512867,0,0.4105856126633023,0,0.3856878144039122,0,0.38484261671129844,0,,0,0.46392558184143623,0,0.3319637017256677,0,0.42610438600258077,0
2025-03-04 10:41:54.685,0.4782182572922796,0,0.48885202589543936,0,0.3362122560107075,0,0.4451962830850822,0,0.41185143877207403,0,0.44742255794704977,0,,0,0.5240650893680351,0,0.4354001323828223,0,0.427418001833649,0
2025-03-04 10:41:54.754,0.49616347468924354,0,0.5646951854602104,0,0.45217025524093646,0,0.49318203062945404,0,0.4658279129848723,0,0.4974733463310958,0,,0,0.5228250139560022,0,0.4621727252100878,0,0.42861130380139034,0
2025-03-04 10:41:54.822,0.5153263836967215,0,0.6027198559557764,0,0.4301166480598883,0,0.46728347497117423,0,0.5019102774262281,0,0.5196007513440886,0,,0,0.5655959257218979,0,0.4694389765866144,0,0.4297224679019349,0
2025-03-04 10:41:54.899,0.5300468287871241,0,0.6055566386783797,0,0.44712075590002887,0,0.5127409389230622,0,0.493555104139567,0,0.4888777028565989,0,,0,0.5627241491535141,0,0.5011415865197841,0,0.4309409948619586,0
2025-03-04 10:41:54.960,0.5360427156293904,0,0.6107684724090798,0,0.47972072544182576,0,0.5402686891183109,0,0.4534724732510567,0,0.4645658232419216,0,,0,0.5265142971011885,0,0.5044511260822462,0,0.4315394121064382,0
2025-03-04 10:41:55.028,0.5381137294403792,0,0.5486105847914329,0,0.48804609347421035,0,0.503591903874764,0,0.40948961803431655,0,0.4205486412079363,0,,0,0.4897295344291684,0,0.48250602211528965,0,0.4322128067797768,0
2025-03-04 10:41:55.096,0.5326493453853648,0,0.47977279996227,0,0.4440189015517673,0,0.47775917268631685,0,0.420835645213847,0,0.44500286391842697,0,,0,0.42144544629843916,0,0.44782714957998077,0,0.43276195953651153,0
2025-03-04 10:41:55.165,0.508524301220735,0,0.45707185361018204,0,0.4816864318074204,0,0.48610216700348835,0,0.468500302704353,0,0.47539562396381513,0,,0,0.3835397424693976,0,0.46194989406081904,0,0.4331840750819849,0
2025-03-04 10:41:55.233,0.4814242968847474,0,0.3887619238626992,0,0.4549803732762077,0,0.4853004399789423,0,0.4617966595467448,0,0.4529466100629316,0,,0,0.3642074425314641,0,0.44916866258723664,0,0.43347102873078,0
2025-03-04 10:41:55.302,0.4617174035303901,0,0.39833848273826883,0,0.47613425986961155,0,0.473544701771677,0,0.408661731933848,0,0.3706217325471521,0,,0,0.42449927853395814,0,0.4505664092540123,0,0.43360245387691654,0
2025-03-04 10:41:55.370,0.4748675723678587,0,0.44317643410175106,0,0.40515076380901466,0,0.464234664720164,0,0.41782594935036926,0,0.41884527439297076,0,,0,0.5070991857086892,0,0.4455019372836004,0,0.4335943657879864,0
2025-03-04 10:41:55.438,0.49890223963659064,0,0.6000386966974807,0,0.4604927081965204,0,0.5022326153865593,0,0.45986346134494793,0,0.46884704339586236,0,,0,0.5904457790394921,0,0.5500337763439238,0,0.43343444159843236,0
2025-03-04 10:41:55.507,0.5207181208077446,0,0.5737897473867876,0,0.5087950843178627,0,0.5565158468657063,0,0.4918782547374038,0,0.4891734636114462,0,,0,0.6287592588370963,0,0.5441715165004513,0,0.4337477066593456,0
2025-03-04 10:41:55.577,0.5541823100799534,0,0.5750158550686526,0,0.5065624445669074,0,0.5686545996730634,0,0.48368064959354595,0,0.4644867525908475,0,,0,0.6060786349282888,0,0.554009259766097,0,0.4327578389635877,0
2025-03-04 10:41:55.645,0.5590001210113557,0,0.4894578143776565,0,0.4977512860271995,0,0.5396910739543849,0,0.44946405390804056,0,0.45669086161224864,0,,0,0.4679378209053072,0,0.4786086246578889,0,0.43239098466843295,0
2025-03-04 10:41:55.714,0.5032682073541959,0,0.46098487420779327,0,0.46867103454351083,0,0.5034849036842356,0,0.41312816214976866,0,0.4245695243524454,0,,0,0.4499630880874473,0,0.5458541145112469,0,0.4319475555690481,0
2025-03-04 10:41:55.782,0.46928301771551734,0,0.4531013729038023,0,0.4312130576073658,0,0.5007354613012396,0,0.4708843530618589,0,0.466726790155766,0,,0,0.41568174073052666,0,0.5564581825754951,0,0.4315007468805507,0
2025-03-04 10:41:55.850,0.4250682656479637,0,0.4403631721259878,0,0.4209875781754915,0,0.45626754178806406,0,0.49739251887607316,0,0.5284059723306936,0,,0,0.5162924375024655,0,0.570006497648668,0,0.430979128032973,0
2025-03-04 10:41:55.919,0.4156399947665897,0,0.4316455991028136,0,0.3787434100002072,0,0.4818540732517851,0,0.5228326152021561,0,0.5349290514914018,0,,0,0.5323598224061575,0,0.5787901367238489,0,0.4304630602733196,0
2025-03-04 10:41:55.987,0.4273530084604967,0,0.49744755770681515,0,0.38887492120418155,0,0.4957272240374585,0,0.4824008876821311,0,0.502263975659742,0,,0,0.4718123128865404,0,0.571986796944753,0,0.42988760626469624,0
2025-03-04 10:41:56.055,0.4643287541778746,0,0.43015173438792526,0,0.44417350822970614,0,0.4820862096668621,0,0.49819197253993464,0,0.5033972804003006,0,,0,0.5093120887455004,0,0.5778397095074789,0,0.42926174245113646,0
2025-03-04 10:41:56.124,0.49022351395490943,0,0.478833201515528,0,0.4983544039766589,0,0.5380308735711385,0,0.49988187021041136,0,0.4956365275497721,0,,0,0.4835487808122163,0,0.6046772938876641,0,0.42868145509728917,0
2025-03-04 10:41:56.192,0.5381681146066515,0,0.534588713981364,0,0.5342555813262455,0,0.5786383619156161,0,0.5437882661765691,0,0.5363335153389364,0,,0,0.49319071077764104,0,0.6076056479831239,0,0.4282043479669669,0
2025-03-04 10:41:56.261,0.528856037599805,0,0.563538445496951,0,0.552858231820022,0,0.5864977434575661,0,0.5366571762767187,0,0.5269444286225617,0,,0,0.450475068129269,0,0.5997326344966112,0,0.4274779784552265,0
2025-03-04 10:41:56.330,0.5214838908675771,0,0.5720061942258747,0,0.5413496049215294,0,0.5805199859157231,0,0.5256830730830427,0,0.5253334715958202,0,,0,0.521004484764372,0,0.5947954726415321,0,0.42695169132123195,0
2025-03-04 10:41:56.398,0.5144849096473545,0,0.5697455691399811,0,0.5061550165883382,0,0.5481680611274354,0,0.5080969637065863,0,0.5102508557496149,0,,0,0.5319358315848008,0,0.5810025774889236,0,0.42650030688199964,0
2025-03-04 10:41:56.467,0.5304038421956024,0,0.582214682105488,0,0.5000190441247833,0,0.516599756606958,0,0.4893565680962044,0,0.4896364055584452,0,,0,0.5256791253377383,0,0.5853282157482571,0,0.4260858912107942,0
2025-03-04 10:41:56.535,0.5183300386050063,0,0.5665228038906716,0,0.4894331682385979,0,0.5057908125376498,0,0.49297623633465193,0,0.49435444141321944,0,,0,0.4873822129628131,0,0.5787835134018612,0,0.4257302399025552,0
2025-03-04 10:41:56.605,0.5016505822255181,0,0.5473579844907224,0,0.46295431290320677,0,0.49386647183870114,0,0.4842944786823362,0,0.49315753315044664,0,,0,0.5066074266498009,0,0.5742103121825727,0,0.42531761249921524,0
2025-03-04 10:41:56.673,0.51213215254571,0,0.5431831180004324,0,0.49174913313193097,0,0.5086609452945512,0,0.4966347931993491,0,0.504455565785714,0,,0,0.5227312142715291,0,0.5957366888171303,0,0.4250695577224338,0
2025-03-04 10:41:56.742,0.5235398149518659,0,0.5752925393651731,0,0.5337253985424272,0,0.5407809843780357,0,0.5278121100666024,0,0.5430546210072603,0,,0,0.5512060896376438,0,0.6346393624716916,0,0.42484582677628846,0
2025-03-04 10:41:56.810,0.5379281095010382,0,0.6132232713144802,0,0.5236336945943781,0,0.5787008693691565,0,0.5855818882266718,0,0.5856010081635622,0,,0,0.5761116880459564,0,0.6812382786553062,0,0.42463225025426077,0
2025-03-04 10:41:56.879,0.5668641535280083,0,0.5025300406799229,0,0.5570263717464237,0,0.6085113971966309,0,0.6153820761728472,0,0.6227201283417726,0,,0,0.5919493499876187,0,0.7150352609825643,0,0.4244905344129307,0
2025-03-04 10:41:56.947,0.5463704676238151,0,0.6008366173642278,0,0.5472789324933424,0,0.6097108025299036,0,0.6127702142055163,0,0.607180990796929,0,,0,0.568857644991236,0,0.7184527019288941,0,0.42438190142218796,0
2025-03-04 10:41:57.016,0.5169057976725455,0,0.5783781078229893,0,0.4933343211023873,0,0.5731426730986453,0,0.5805679365479834,0,0.582215650928302,0,,0,0.5713244821119862,0,0.6745190150369901,0,0.4243187585134569,0
2025-03-04 10:41:57.085,0.4908627925859597,0,0.5576137136732942,0,0.46002597954614416,0,0.5378748043266472,0,0.5426472678634905,0,0.5342136073122797,0,,0,0.514423643488848,0,0.6208882324151374,0,0.42435375239285333,0
2025-03-04 10:41:57.153,0.4869388045701998,0,0.5513706292959012,0,0.4437149345676727,0,0.5135222928681146,0,0.521741506231017,0,0.5166735953245222,0,,0,0.475301332645264,0,0.5963267486628261,0,0.4244461254420493,0
2025-03-04 10:41:57.221,0.48079140477975224,0,0.5497958134593982,0,0.40876244473649015,0,0.4250562666818798,0,0.5269277826303315,0,0.509809968796935,0,,0,0.41716812171125434,0,0.545718549467834,0,0.4245871305532957,0
2025-03-04 10:41:57.289,0.46906677600041424,0,0.41374982393712256,0,0.43846990319976437,0,0.4316254924765926,0,0.4988707309520506,0,0.47923493009768797,0,,0,0.3681021030872529,0,0.4930437274753756,0,0.42473944323603,0
2025-03-04 10:41:57.358,0.44368442651415035,0,0.414830221408812,0,0.4251837782575646,0,0.44142228480822554,0,0.48094712591492456,0,0.45534207462428095,0,,0,0.3518007769881228,0,0.46075546571012044,0,0.4248950868761833,0
2025-03-04 10:41:57.426,0.4305693987523414,0,0.5674017787107533,0,0.3969888075947396,0,0.44645365470708337,0,0.4666674411280544,0,0.4423825617668226,0,,0,0.38967719824317687,0,0.481408002096899,0,0.42504617013255275,0
2025-03-04 10:41:57.495,0.4328467203911567,0,0.4535781407921413,0,0.3927630800376061,0,0.463101450255684,0,0.4707144035568325,0,0.45443137584878435,0,,0,0.3985108573467796,0,0.5163903784288912,0,0.4251899068304298,0
2025-03-04 10:41:57.563,0.44522325812942626,0,0.4600008205814164,0,0.37698044385856416,0,0.4694628686497956,0,0.47558623595549,0,0.4788836860403865,0,,0,0.41628701760202597,0,0.5428968624162072,0,0.42533522200730267,0
2025-03-04 10:41:57.631,0.4540163884487584,0,0.4728701252729044,0,0.36242194063381117,0,0.4543033592833182,0,0.4689870899523017,0,0.4761690194091698,0,,0,0.4469482512301094,0,0.5534147378151548,0,0.42549167346690697,0
2025-03-04 10:41:57.700,0.4556009976694484,0,0.4895402959578074,0,0.34881563733308085,0,0.470808355562143,0,0.44044934848015865,0,0.46047572116811036,0,,0,0.4562388194575489,0,0.5376324041578819,0,0.42567030341492307,0
2025-03-04 10:41:57.769,0.45685510967504395,0,0.49286626234817454,0,0.3475198247568275,0,0.47756694044313786,0,0.42830089022112705,0,0.44277801084759905,0,,0,0.3682308375138378,0,0.5512794624027781,0,0.4258711511963158,0
2025-03-04 10:41:57.837,0.4695610387621688,0,0.4908943883719599,0,0.3481183299322627,0,0.4322770342593083,0,0.43449980285202117,0,0.43823712199403636,0,,0,0.457001093350716,0,0.5508103929795451,0,0.4260703967751379,0
2025-03-04 10:41:57.906,0.46834996113620814,0,0.4622980152692372,0,0.37002702538340576,0,0.43859034550757126,0,0.4441327919352027,0,0.45451217025158985,0,,0,0.45041689409722224,0,0.5493460780428734,0,0.4262734066630598,0
2025-03-04 10:41:57.974,0.46459376536784114,0,0.4585970765238811,0,0.3899472208575727,0,0.4386334989306938,0,0.45699369698966924,0,0.4741602860935934,0,,0,0.4934601755406389,0,0.5513371030146402,0,0.42646237443072754,0
2025-03-04 10:41:58.043,0.46000622921213713,0,0.4484476451938224,0,0.3970038820888174,0,0.4349480313977432,0,0.47018584887780035,0,0.5002172334396885,0,,0,0.4862694314584878,0,0.5568651260357987,0,0.4266346381373116,0
2025-03-04 10:41:58.113,0.4463657987937239,0,0.42262248169849487,0,0.39476886463349004,0,0.4300757876508916,0,0.47768436322104146,0,0.5035149400879232,0,,0,0.5026855081128117,0,0.5601869678296365,0,0.42677653062002563,0
2025-03-04 10:41:58.182,0.4551402270034001,0,0.41735441140007745,0,0.37744082108175797,0,0.42294070230716735,0,0.47321374938393296,0,0.4878353212342791,0,,0,0.5005083495473005,0,0.560935802884379,0,0.4268810259243597,0
2025-03-04 10:41:58.250,0.4675111380145081,0,0.44007706648331973,0,0.36124404743123867,0,0.42028759352678247,0,0.4651112528123258,0,0.4730181052294434,0,,0,0.48348308285915376,0,0.564793361005002,0,0.42695464458772614,0
2025-03-04 10:41:58.320,0.47582512230699875,0,0.45411471618845956,0,0.3559537205588145,0,0.4220616501500912,0,0.4588838501588303,0,0.4717039157146284,0,,0,0.49855316955742174,0,0.5694197787667525,0,0.42700978531609524,0
2025-03-04 10:41:58.388,0.46696007987074867,0,0.46789992991546675,0,0.36932946830440977,0,0.4233700891409599,0,0.45084007985509095,0,0.4740990875841984,0,,0,0.5098951410763853,0,0.5750859953502158,0,0.42709968257417746,0
2025-03-04 10:41:58.456,0.4755744995890871,0,0.4824879392318889,0,0.3946602610208426,0,0.3277224832351335,0,0.375178206830037,0,0.4455538208445791,0,,0,0.5200008295543517,0,0.5504854441676613,0,0.42720765661215165,0
2025-03-04 10:41:58.525,0.4909147588307867,0,0.3246663564431532,0,0.3339375941086252,0,0.34973362030923955,0,0.38781931866485103,0,0.4829245605125149,0,,0,0.507654525442393,0,0.5828364039172872,0,0.4273460332406255,0
2025-03-04 10:41:58.594,0.5160342866505669,0,0.442218602694044,0,0.39736290587469536,0,0.39252086255046537,0,0.4055009293336861,0,0.4818045801402039,0,,0,0.49161825764686434,0,0.5809204240490341,0,0.42745586443231437,0
2025-03-04 10:41:58.662,0.5328860781003644,0,0.43140826316190345,0,0.42382918204325937,0,0.4297938418437928,0,0.45220019463139116,0,0.5206087341925691,0,,0,0.46764699740872884,0,0.574615488409053,0,0.4275916120310613,0
2025-03-04 10:41:58.732,0.5236806725853713,0,0.6841859711690258,0,0.5630608934878865,0,0.4855656987802481,0,0.488330457412805,0,0.5240904443953088,0,,0,0.4487190653117004,0,0.5620937408809532,0,0.427668550100026,0
2025-03-04 10:41:58.801,0.4909856841789557,0,0.5119459798714318,0,0.47481310079517425,0,0.5157331100334663,0,0.4927702617286053,0,0.50626662238534,0,,0,0.4576054150680325,0,0.5542320853858825,0,0.42771339709725104,0
2025-03-04 10:41:58.869,0.5118359054966454,0,0.5683779005547352,0,0.5161175996017354,0,0.56100495766911,0,0.5200865755997964,0,0.5082795469463497,0,,0,0.42992003981974886,0,0.5540763266249562,0,0.4277384078819439,0
2025-03-04 10:41:58.938,0.5003575503042391,0,0.5695559126081414,0,0.5841727036027219,0,0.5597432850086949,0,0.4564135927102441,0,0.44273615439886055,0,,0,0.4079070370366803,0,0.5295712363259464,0,0.42775623418850844,0
2025-03-04 10:41:59.006,0.4583688578714372,0,0.4945792411183889,0,0.4715095483147976,0,0.4733371865218887,0,0.4163541343246483,0,0.4285690902754462,0,,0,0.4187649235999482,0,0.535724830968489,0,0.42769733753831024,0
2025-03-04 10:41:59.075,0.45662446000114804,0,0.47302009089513575,0,0.4409154435972599,0,0.46492593734589344,0,0.41266486711192263,0,0.43461635232986023,0,,0,0.4509840613516484,0,0.5443671540796808,0,0.4276286961688662,0
2025-03-04 10:41:59.143,0.46331968065730716,0,0.5225497561845782,0,0.47104848590368764,0,0.4362907683350853,0,0.4178984505938324,0,0.4504931794575885,0,,0,0.48066329572527755,0,0.5553789266968187,0,0.4275612707981436,0
2025-03-04 10:41:59.211,0.47974341164980694,0,0.47312238928536116,0,0.4908449964985201,0,0.4887100883720859,0,0.47098315918413464,0,0.46864065886296397,0,,0,0.5288563091760062,0,0.5696585512625778,0,0.4275428284718818,0
2025-03-04 10:41:59.280,0.48431815061376915,0,0.5268918217875199,0,0.5166797148684805,0,0.5023559555115468,0,0.4625056394252149,0,0.48195759342095706,0,,0,0.5368876791694402,0,0.5891666924454986,0,0.42745446277553817,0
2025-03-04 10:41:59.348,0.47467859168943055,0,0.5300756312312876,0,0.5207011074237227,0,0.49660082442601905,0,0.4881936093447442,0,0.4867275040265605,0,,0,0.5010932500444294,0,0.5933190079552,0,0.4274087367507968,0
2025-03-04 10:41:59.416,0.47103591861569855,0,0.6003802404358209,0,0.5805095936561208,0,0.5317800753404648,0,0.5569824988497443,0,0.5064601922533666,0,,0,0.4922809816934194,0,0.5898422360123728,0,0.42736201381625405,0
2025-03-04 10:41:59.485,0.5444394009788371,0,0.5259955585665931,0,0.5478743701155103,0,0.5507797493958014,0,0.5344728025644018,0,0.480524799090805,0,,0,0.5132384515883144,0,0.5921854949719305,0,0.42723797514064066,0
2025-03-04 10:41:59.555,0.46128811285340543,0,0.5127267611573245,0,0.5490173950625201,0,0.5116410654466471,0,0.4692663862347578,0,0.48477759353807165,0,,0,0.4387427812368781,0,0.4478143450076996,0,0.42705408087865926,0
2025-03-04 10:41:59.623,0.46763122165614984,0,0.4906668669721661,0,0.5133226898309137,0,0.4725262839575934,0,0.4537854423956951,0,0.48699285042845797,0,,0,0.5182862608532601,0,0.6085414585846395,0,0.4269573268047066,0
2025-03-04 10:41:59.693,0.3837898818430579,0,0.42475234880233675,0,0.5152634080796887,0,0.45590742012603724,0,0.466298632086557,0,0.49464210545100856,0,,0,0.5167864644131043,0,0.5786457410149545,0,0.42683202227998734,0
2025-03-04 10:41:59.761,0.5089090360088269,0,0.514717027638028,0,0.524787803862671,0,0.4841382254105673,0,0.4863757076582748,0,0.5153137011925544,0,,0,0.5369350334542675,0,0.6429668724446196,0,0.4267536998304527,0
2025-03-04 10:41:59.830,0.5449320358165779,0,0.5707860266074056,0,0.5512533845644778,0,0.5033057701025339,0,0.5280683539150585,0,0.5553766375589707,0,,0,0.5468408556418131,0,0.6782523098284031,0,0.4266449649356662,0
2025-03-04 10:41:59.900,0.584926896939074,0,0.6232134659121077,0,0.6039845451052482,0,0.5438858296893264,0,0.5779998263984553,0,0.5907699947482523,0,,0,0.5593878861336462,0,0.6635951137514116,0,0.4265440971227649,0
2025-03-04 10:41:59.968,0.567919581238006,0,0.6686946649893921,0,0.6260706362187495,0,0.5950004239712425,0,0.6087809793763913,0,0.607669801097499,0,,0,0.5560884816209237,0,0.6871032798729263,0,0.42647872586227903,0
2025-03-04 10:42:00.036,0.5683961616513905,0,0.6477580984203193,0,0.6461052687038563,0,0.5935259866517089,0,0.6096898418504424,0,0.5979743382248639,0,,0,0.552032219927315,0,0.6618568224270154,0,0.42642592643256605,0
2025-03-04 10:42:00.110,0.5363569953755889,0,0.612180182825348,0,0.6248501775885175,0,0.566761290634524,0,0.5824982262894938,0,0.5745061966838169,0,,0,0.5186035538535223,0,0.6258085471691703,0,0.42629048483171283,0
2025-03-04 10:42:00.173,0.5161187185581355,0,0.5818237179969955,0,0.6058208514275706,0,0.580766498274191,0,0.5237773020836616,0,0.5028125762475505,0,,0,0.44317294726513257,0,0.6015659117453701,0,0.4264388324582696,0
2025-03-04 10:42:00.241,0.5038782373896311,0,0.5663353042860068,0,0.5508828065270438,0,0.575921200067281,0,0.5529885383332669,0,0.5496511622684843,0,,0,0.49149718980783197,0,0.597635125807479,0,0.42644817713412686,0
2025-03-04 10:42:00.310,0.488670040720715,0,0.48932119516052475,0,0.5700878858044867,0,0.5745843667130635,0,0.5560643176255294,0,0.5412494060604114,0,,0,0.4765081914400904,0,0.5972788729746716,0,0.4265025607312394,0
2025-03-04 10:42:00.378,0.4776382383310487,0,0.5752126217454308,0,0.5265890923541247,0,0.5825551107775481,0,0.5630559738851031,0,0.5433191758464051,0,,0,0.47127493966890455,0,0.6074478731722598,0,0.4265379111286273,0
2025-03-04 10:42:00.447,0.5040158609508117,0,0.6018343488794888,0,0.5888010120740277,0,0.6129906649842092,0,0.5920072203565135,0,0.5649887002357067,0,,0,0.48867859737946173,0,0.6245351455777074,0,0.42659618550408845,0
2025-03-04 10:42:00.515,0.5278497625826923,0,0.6232517154294407,0,0.6375382087786251,0,0.6168464960398754,0,0.611787254394727,0,0.578770837297143,0,,0,0.5022669068135205,0,0.6254447074765923,0,0.4266420393060181,0
2025-03-04 10:42:00.583,0.5333015027983706,0,0.6224182978829546,0,0.6453285565963042,0,0.6143094237683541,0,0.6005247199394368,0,0.5669187359682886,0,,0,0.49221125801095383,0,0.6079817070465429,0,0.42665353623825686,0
2025-03-04 10:42:00.654,0.5324544392761358,0,0.6487095701243262,0,0.6179836633593357,0,0.5768435354047753,0,0.557131436472569,0,0.526458090082506,0,,0,0.4613917442593833,0,0.5894468134320852,0,0.4266103993093196,0
2025-03-04 10:42:00.723,0.5208880599020733,0,0.5939137454765919,0,0.5752948298515755,0,0.5335631406863389,0,0.5237775925423902,0,0.502835550861839,0,,0,0.41307507412989647,0,0.5661964716979566,0,0.42672016258480633,0
2025-03-04 10:42:00.791,0.4997243500095648,0,0.4880244437652768,0,0.510972799226406,0,0.5105433010901448,0,0.5008494617760357,0,0.4870952797883961,0,,0,0.4643664362198222,0,0.5458184871193636,0,0.42660878220421894,0
2025-03-04 10:42:00.860,0.4430187994127351,0,0.5197179950357423,0,0.4781749717628884,0,0.4794033328574691,0,0.4623672523876071,0,0.4921147278027675,0,,0,0.4854847286787824,0,0.5406196090299733,0,0.4266094184447684,0
2025-03-04 10:42:00.928,0.376387321742787,0,0.3708366547618759,0,0.4154973282583505,0,0.4938008526860054,0,0.511336427762959,0,0.5070455666543828,0,,0,0.5122928970880839,0,0.5613356187709002,0,0.4266242425551333,0
2025-03-04 10:42:00.997,0.47395093747197015,0,0.509744232675181,0,0.5271467964831706,0,0.49884471108363615,0,0.5308515104898622,0,0.5331394738478904,0,,0,0.5486037983196677,0,0.5843728601768888,0,0.42661595705261607,0
2025-03-04 10:42:01.066,0.5150891276592686,0,0.4393787928416334,0,0.47706005871213897,0,0.5454934613723343,0,0.5579810943436461,0,0.5506096898639605,0,,0,0.5442108017992121,0,0.6122967450890309,0,0.4266166138420516,0
2025-03-04 10:42:01.137,0.5453265885858394,0,0.5814799737494899,0,0.5533931014200518,0,0.5429286501083849,0,0.5433833284175063,0,0.540767151538174,0,,0,0.5296879608314606,0,0.6129247668851522,0,0.42657678781997993,0
2025-03-04 10:42:01.210,0.49574704258415014,0,0.529693692750115,0,0.550797047271154,0,0.5260248756662483,0,0.5137795157310904,0,0.5084639723108327,0,,0,0.4868329174633032,0,0.5717725884546742,0,0.42653154170039737,0
2025-03-04 10:42:01.272,0.5073797913238943,0,0.5066282167224584,0,0.5237150331748375,0,0.49249773520892864,0,0.4740939203341737,0,0.47038603650503513,0,,0,0.4887856052956343,0,0.544352401395285,0,0.4265962824332832,0
2025-03-04 10:42:01.340,0.461935369761402,0,0.4825047250220326,0,0.48284249856382105,0,0.45464262056968796,0,0.4329328717815105,0,0.43803791026689015,0,,0,0.4336294601606897,0,0.5217465410254863,0,0.46620150777534,0
2025-03-04 10:42:01.410,0.4424024412802054,0,0.46186571626583,0,0.45039549002871365,0,0.42491658948787137,0,0.407817131900825,0,0.419594601067465,0,,0,0.4088100863238777,0,0.5109483303486196,0,0.6401185660918375,0
2025-03-04 10:42:01.477,0.4597982970521616,0,0.44470553915060257,0,0.4431551423842971,0,0.4298055134063474,0,0.4036905612750582,0,0.4194811183469451,0,,0,0.3999818027519964,0,0.5045097826606315,0,0.8884554097305093,0
2025-03-04 10:42:01.545,0.4746574333274299,0,0.39566458474714344,0,0.43916914677905516,0,0.4317441948175739,0,0.4172995288984206,0,0.4411518041743912,0,,0,0.4227661615405005,0,0.5179345753580652,0,0.8885348527039603,0
2025-03-04 10:42:01.614,0.4849368921642501,0,0.48529872397509827,0,0.4702376520161702,0,0.4509813600136228,0,0.45099596295758987,0,0.4738421733308764,0,,0,0.4616148048400039,0,0.5500702961972138,0,0.8886728878494952,0
2025-03-04 10:42:01.684,0.4819235072521756,0,0.5464853892086394,0,0.5040020557051682,0,0.47891061230363846,0,0.4798474362630209,0,0.5013159083398135,0,,0,0.488697050914471,0,0.5786883445247132,0,0.875317548918231,0
2025-03-04 10:42:01.752,0.49808930429087883,0,0.5331652518972587,0,0.5300920418670875,0,0.49777785036285616,0,0.47969565027537653,0,0.4959262494231043,0,,0,0.5245441555266083,0,0.5793367393719085,0,0.8362327716693337,0
2025-03-04 10:42:01.821,0.4506719127456902,0,0.5174841315776372,0,0.518087656795332,0,0.4927932339586568,0,0.4567712644540538,0,0.47191246370140133,0,,0,0.4471768966842865,0,0.5622569757598052,0,0.7871388299739476,0
2025-03-04 10:42:01.889,0.4039637449178586,0,0.5130478171362719,0,0.4868481361286595,0,0.46924233667364196,0,0.4316874253579917,0,0.45420670294113097,0,,0,0.43509703859503046,0,0.5415454166324619,0,0.7600069407178932,0
2025-03-04 10:42:01.960,0.3831675030711294,0,0.535617991862326,0,0.5395839490039085,0,0.46426768167145094,0,0.49405720493888666,0,0.48904899637750054,0,,0,0.44970543482192843,0,0.5466451653891888,0,0.7549948162113699,0
2025-03-04 10:42:02.027,0.4956501066631054,0,0.46257038236506054,0,0.47185915712092197,0,0.44281273761805523,0,0.4286674636526931,0,0.45262843242015754,0,,0,0.4963318256512658,0,0.5639415666060414,0,0.7378110974426936,0
2025-03-04 10:42:02.096,0.39061040308587214,0,0.4671905155254395,0,0.43804929227383055,0,0.41251795054757195,0,0.44105176884332525,0,0.5206433991297078,0,,0,0.5456508755383498,0,0.4670748936851165,0,0.6920613957178025,0
2025-03-04 10:42:02.164,0.3980508315723095,0,0.4021102236600196,0,0.4038793043683846,0,0.42102318438264,0,0.45849560434959447,0,0.5410083987209222,0,,0,0.5660908921677896,0,0.6290006660612685,0,0.6104617100559467,0
2025-03-04 10:42:02.233,0.4226491511195258,0,0.38033001182613385,0,0.44577791746422984,0,0.4492073247505998,0,0.49418590464735807,0,0.5633502358118095,0,,0,0.5654624181235002,0,0.644564881531116,0,0.5044346234746765,0
2025-03-04 10:42:02.309,0.45194619767632127,0,0.41613528405456907,0,0.4749316565014045,0,0.47961851520920906,0,0.5346513345865049,0,0.5822958825546514,0,,0,0.5396527283706276,0,0.6459170869118087,0,0.3956338521542091,0
2025-03-04 10:42:02.369,0.44848199092299096,0,0.4376479828034108,0,0.53563780902523,0,0.5015648542145953,0,0.5543170019995779,0,0.5859540807430272,0,,0,0.5195400120903041,0,0.6312700928811129,0,0.2895601341468997,0
2025-03-04 10:42:02.439,0.43476558296836393,0,0.4738645404220889,0,0.5412224226061215,0,0.5083405970786541,0,0.5497716011592644,0,0.5735791418094102,0,,0,0.5087097324637738,0,0.6244802917840961,0,0.25922820375981925,0
2025-03-04 10:42:02.509,0.4252892265889935,0,0.4458944894280104,0,0.5411085334679575,0,0.503006394305217,0,0.5291530795870578,0,0.5521588143797704,0,,0,0.4954446923210113,0,0.606912502403556,0,0.2589202007778499,0
2025-03-04 10:42:02.575,0.43211961833471674,0,0.48516931116798045,0,0.5085868479872834,0,0.4958870030555375,0,0.5099726854338522,0,0.5358903472176556,0,,0,0.4945429295632811,0,0.5886065346175824,0,0.2595654599799176,0
2025-03-04 10:42:02.644,0.4649354244816125,0,0.5278794228928598,0,0.49619807424116547,0,0.4910574630277413,0,0.4964475565752401,0,0.5323223291432794,0,,0,0.49023588577786925,0,0.5642848841037318,0,0.259199665556736,0
2025-03-04 10:42:02.712,0.4981492543262427,0,0.47086737933245465,0,0.506135529840731,0,0.49385235302245806,0,0.49705144342148616,0,0.5394761310415834,0,,0,0.4803158409702109,0,0.5567280813060386,0,0.2597195407512135,0
2025-03-04 10:42:02.780,0.5170132099403361,0,0.38895316547985714,0,0.5287024818133881,0,0.5056008421878151,0,0.514484689604181,0,0.5563068173611145,0,,0,0.4885444073938174,0,0.5575508428577929,0,0.2602010816435918,0
2025-03-04 10:42:02.849,0.5268518544528977,0,0.4490098277962136,0,0.5521710734679726,0,0.5272170727262735,0,0.5473063000900577,0,0.5332384668529635,0,,0,0.5166233356132608,0,0.5821905997275447,0,0.26064976937923445,0
2025-03-04 10:42:02.917,0.5373724033744088,0,0.46658033473217936,0,0.5713359417646918,0,0.5515341415316332,0,0.5783550707874403,0,0.6221884557289018,0,,0,0.5428622632491731,0,0.6191379089056198,0,0.26275575692410147,0
2025-03-04 10:42:02.986,0.5566965543242762,0,0.5347975826614616,0,0.594089200775628,0,0.5683552957951061,0,0.6024790040611531,0,0.6469066160304071,0,,0,0.5603907117234352,0,0.6288792886583534,0,0.26070009266253713,0
2025-03-04 10:42:03.060,0.5570906498255171,0,0.5178899934298133,0,0.6153051273689399,0,0.5741415467991489,0,0.5931973452997221,0,0.6411207566136821,0,,0,0.5478616344032535,0,0.6176518312736912,0,0.25948936792057137,0
2025-03-04 10:42:03.123,0.5345764976380504,0,0.5299666668306304,0,0.5708504210046358,0,0.558980920559262,0,0.5668896211406913,0,0.6086174277311317,0,,0,0.5038588098512944,0,0.5901740825787237,0,0.2615256022538742,0
2025-03-04 10:42:03.192,0.5194718000462734,0,0.49984224463371846,0,0.5395661678821144,0,0.5318790733238794,0,0.5335444034230674,0,0.5696541705840557,0,,0,0.45677319960636875,0,0.5552287706802922,0,0.2670121588875595,0
2025-03-04 10:42:03.260,0.5062597742460794,0,0.523031422554721,0,0.49870201901621447,0,0.5077924832431528,0,0.5045490825410592,0,0.5380151942415107,0,,0,0.43638285617420547,0,0.536142641101968,0,0.27718557414463624,0
2025-03-04 10:42:03.328,0.4854147647265681,0,0.5124190527625185,0,0.46831428127462,0,0.4929909130918304,0,0.49479125368617355,0,0.5268239759392525,0,,0,0.4451872653016676,0,0.5479654475834637,0,0.2915631240509507,0
2025-03-04 10:42:03.397,0.45534879890683566,0,0.47129324453715954,0,0.45184333894634643,0,0.49219246784413156,0,0.500471539283835,0,0.5089029894449788,0,,0,0.46907270160623543,0,0.5741113929959918,0,0.31024569621203946,0
2025-03-04 10:42:03.465,0.4343877070147753,0,0.547738872593484,0,0.44926649023811727,0,0.4863469334505195,0,0.5111683389955475,0,0.5452411238361968,0,,0,0.4698907166295616,0,0.6021670949736906,0,0.33332660008217785,0
2025-03-04 10:42:03.533,0.4451427973557098,0,0.49972761300467383,0,0.48702744055408614,0,0.5150364970096897,0,0.5344260292382893,0,0.5699120372857701,0,,0,0.48067428875535884,0,0.6234776185959604,0,0.36123645735852,0
2025-03-04 10:42:03.609,0.474537014369381,0,0.4869874102130066,0,0.5268822127629221,0,0.5359447894139219,0,0.56094213718992,0,0.5913000937982524,0,,0,0.4895446626471613,0,0.6235657051972376,0,0.4028095786843445,0
2025-03-04 10:42:03.670,0.49265642927353365,0,0.5468532537331412,0,0.5541561480252934,0,0.5603757864459257,0,0.5721334784304172,0,0.5888608103533677,0,,0,0.4885491684985901,0,0.6051777889477538,0,0.42778837280372994,0
2025-03-04 10:42:03.739,0.5011644478363462,0,0.5078411852194097,0,0.5493379959613083,0,0.5539088332219927,0,0.5570676270481565,0,0.5628675289408296,0,,0,0.46654878272141764,0,0.5731403279717914,0,0.48438620280387357,0
2025-03-04 10:42:03.810,0.48817367932888545,0,0.5181578040745751,0,0.5211578300798919,0,0.5308661529086268,0,0.5220021548013295,0,0.534715941244884,0,,0,0.4553157775602325,0,0.5516063200687608,0,0.5566649505857906,0
2025-03-04 10:42:03.875,0.6226002996259463,0,0.44608401638121,0,0.48556507880157396,0,0.4999300927315704,0,0.48935722424955747,0,0.5104284940864413,0,,0,0.4561626564481151,0,0.5410674601679437,0,0.6359313820182713,0
2025-03-04 10:42:03.945,0.4746936817724681,0,0.40428652264617027,0,0.4630869547818733,0,0.48358473691414966,0,0.47051299539212815,0,0.5051283927959342,0,,0,0.47685885123049404,0,0.5484925841629347,0,0.7262589040933398,0
2025-03-04 10:42:04.014,0.39144309163151053,0,0.4202994100122229,0,0.4608953839735444,0,0.47965212925257267,0,0.470967008525498,0,0.4711106442160598,0,,0,0.3899307646782776,0,0.534924636587231,0,0.7264801506124082,0
2025-03-04 10:42:04.082,0.4287309510142111,0,0.4285739920279451,0,0.4776682490960861,0,0.4848770822456774,0,0.48544975884228064,0,0.5228833208944532,0,,0,0.4838694927752328,0,0.5668908884922873,0,0.7265887376077624,0
2025-03-04 10:42:04.160,0.46381335251327493,0,0.44864231727488685,0,0.49728700413018967,0,0.48660004070650026,0,0.50799062841347,0,0.554687480856305,0,,0,0.5010667273639504,0,0.5833453537674883,0,0.728800143391684,0
2025-03-04 10:42:04.220,0.47989634014065774,0,0.5350632162056355,0,0.5268621066029698,0,0.5283188069205259,0,0.544485597841201,0,0.5847335737739783,0,,0,0.50537349427881,0,0.6107573496202224,0,0.7253798313872244,0
2025-03-04 10:42:04.288,0.5102763573730942,0,0.581035196420502,0,0.5373444222882535,0,0.5403618742479649,0,0.5489571981262963,0,0.59325030041132,0,,0,0.4986238144663247,0,0.6147056156697674,0,0.7258515327882484,0
2025-03-04 10:42:04.360,0.5072345675792755,0,0.5763284491808278,0,0.5326723677779288,0,0.5348939369919701,0,0.5367793023869879,0,0.5736363665207619,0,,0,0.487802961063904,0,0.6058664571868511,0,0.725862725949399,0
2025-03-04 10:42:04.425,0.49740512258430875,0,0.5099068121473982,0,0.5180448219733035,0,0.516418030361748,0,0.5120233591154364,0,0.5514955063210334,0,,0,0.4870174423058931,0,0.5931513651250867,0,0.7231419357616098,0
2025-03-04 10:42:04.494,0.4846113961059856,0,0.49495625721706965,0,0.498934119241341,0,0.48336922070123317,0,0.48349066847274585,0,0.5294244169680943,0,,0,0.4907911412229462,0,0.5819973776052633,0,0.7239614702144305,0
2025-03-04 10:42:04.563,0.48487301437401265,0,0.44898890461039165,0,0.4845819926213038,0,0.45945081733600773,0,0.47695651216463364,0,0.5260261917942082,0,,0,0.49228634197602417,0,0.5640510296339513,0,0.7243844676677399,0
2025-03-04 10:42:04.631,0.450331117581279,0,0.44945081825425093,0,0.47737698852706656,0,0.44957974248487037,0,0.47907850001649965,0,0.5288348394731538,0,,0,0.48826099501445247,0,0.558202964682212,0,0.7257411571506917,0
2025-03-04 10:42:04.699,0.466261262849674,0,0.4169029252895638,0,0.48128016458894907,0,0.45717321435983393,0,0.4855289122045032,0,0.528967068369312,0,,0,0.47914317107749754,0,0.561957976534198,0,0.7277342309433943,0
2025-03-04 10:42:04.768,0.4759194397428976,0,0.4418425620700212,0,0.49385208960360855,0,0.4776054972569456,0,0.5123055064505923,0,0.5510556853197388,0,,0,0.5006598329731851,0,0.587032316908582,0,0.7279749761261276,0
2025-03-04 10:42:04.837,0.47919547008781016,0,0.44864202312848567,0,0.5025460417569484,0,0.4921222068866884,0,0.5353135308927512,0,0.5758794470263617,0,,0,0.5112800184695047,0,0.6126108287684727,0,0.7254872511725445,0
2025-03-04 10:42:04.909,0.4905893053516695,0,0.4584775518387176,0,0.5197227281416461,0,0.5163468768756528,0,0.5506627148539,0,0.5877424013916844,0,,0,0.4977810469968101,0,0.6180967810866594,0,0.7156792485942709,0
2025-03-04 10:42:04.974,0.49291930227245584,0,0.4691732996568223,0,0.5173226704428203,0,0.5304712675007073,0,0.5455507003642903,0,0.5735675102407792,0,,0,0.4711051574423004,0,0.6044213936430786,0,0.7036846441979367,0
2025-03-04 10:42:05.042,0.5014831240241185,0,0.47343226087670365,0,0.5119880881597663,0,0.5256008947732,0,0.5232877518699378,0,0.5520854116030006,0,,0,0.46517574876329093,0,0.5772006085432843,0,0.6840421037635483,0
2025-03-04 10:42:05.110,0.49987400616172023,0,0.4853860625841668,0,0.5100519402150957,0,0.5112605746964024,0,0.5044561666189399,0,0.5320848223583207,0,,0,0.46840547852771536,0,0.5621692775876478,0,0.6637615199528512,0
2025-03-04 10:42:05.179,0.4701882551890621,0,0.4879069991678109,0,0.5125063109699312,0,0.496747463955741,0,0.5008224997250076,0,0.5325275086014583,0,,0,0.4967466531877413,0,0.5605318778227747,0,0.6403124409643729,0
2025-03-04 10:42:05.247,0.43842147628718503,0,0.4187045816547522,0,0.5095828798688801,0,0.48654880429564207,0,0.4983035591543757,0,0.5274317955581856,0,,0,0.4983766539249399,0,0.560265361593266,0,0.6139647508762507,0
2025-03-04 10:42:05.316,0.41107042648852404,0,0.4663682517736299,0,0.49604820092632657,0,0.47713935790705636,0,0.5009032627046212,0,0.5349284741547029,0,,0,0.5174002378014645,0,0.5709575885542398,0,0.5837450015331953,0
2025-03-04 10:42:05.384,0.4155373662475969,0,0.48414668596190913,0,0.5024839154225397,0,0.4876039196873402,0,0.5165127817168272,0,0.5679858503783001,0,,0,0.5458669082974632,0,0.6452934181506905,0,0.5458085308345026,0
2025-03-04 10:42:05.460,0.4996046162414162,0,0.49247988283820604,0,0.5220789314938183,0,0.5067994907937284,0,0.5363517132256475,0,0.6082856393462417,0,,0,0.5803325335272032,0,0.6708629858795861,0,0.46809714545961706,0
2025-03-04 10:42:05.522,0.5621641920472499,0,0.51701643699538,0,0.533472417602719,0,0.5263391962177704,0,0.5528204316484582,0,0.6258628403696904,0,,0,0.5886196055067163,0,0.6856412477162872,0,0.4420669587409042,0
2025-03-04 10:42:05.590,0.5597761405985144,0,0.5146020490842276,0,0.5352632542975813,0,0.5349861418062326,0,0.5466469181636451,0,0.6127907640862114,0,,0,0.5569752368709402,0,0.6523063428985856,0,0.32280460128669847,0
2025-03-04 10:42:05.660,0.5321832960489049,0,0.498342671557393,0,0.5256674855455689,0,0.5211182716641943,0,0.5247143124466024,0,0.5803416806514438,0,,0,0.5119764632611548,0,0.6200484781398335,0,0.28615922862870724,0
2025-03-04 10:42:05.727,0.5165955852289005,0,0.47584193864571167,0,0.4988076892183742,0,0.5042143498556306,0,0.5074064701436222,0,0.5679288598633525,0,,0,0.4952509044680867,0,0.6192030839091247,0,0.28602383444146673,0
2025-03-04 10:42:05.795,0.518071397634131,0,0.45578575010166894,0,0.49785188021287563,0,0.4961234438222026,0,0.49512772425459567,0,0.5525689395631568,0,,0,0.480581188311891,0,0.619189759210647,0,0.2856735700290634,0
2025-03-04 10:42:05.863,0.47952942516876834,0,0.44072538394669586,0,0.4937146907184656,0,0.48502419145052883,0,0.48388762326812773,0,0.544177370348997,0,,0,0.49074877249126103,0,0.6208233489207902,0,0.286041122827301,0
2025-03-04 10:42:05.932,0.5258224628990107,0,0.43926007040123405,0,0.4813645087365794,0,0.48106643633519547,0,0.4830202417591109,0,0.5411002434440136,0,,0,0.4889921705781322,0,0.6279533126665876,0,0.28691699721457087,0
2025-03-04 10:42:06.000,0.553117007790302,0,0.45583060887970434,0,0.48637062131066666,0,0.48836705013189924,0,0.4982091382647136,0,0.5504064980243123,0,,0,0.4868219908062209,0,0.6425283468369999,0,0.2877175801014743,0
2025-03-04 10:42:06.068,0.5790850381810029,0,0.478616102643623,0,0.5015897162374964,0,0.5055127513188384,0,0.5282091974947181,0,0.5767941386857716,0,,0,0.4977362931094956,0,0.6527799821194921,0,0.29307239069899277,0
2025-03-04 10:42:06.137,0.5844078242320371,0,0.4924431703437263,0,0.5058321791595353,0,0.512079518237144,0,0.5437949644061683,0,0.5817688170888619,0,,0,0.4907493531597084,0,0.6506430697925766,0,0.28842099246451425,0
2025-03-04 10:42:06.210,0.560171189393874,0,0.5834069957166643,0,0.4982719977269724,0,0.5042390154211811,0,0.5410692808732153,0,0.5766740991693472,0,,0,0.49658204297016295,0,0.6441683177529766,0,0.28334311664639295,0
2025-03-04 10:42:06.276,0.6856306413323268,0,0.6296738767666596,0,0.5800388006384769,0,0.5055888953774698,0,0.5237734455444826,0,0.5714853185621875,0,,0,0.5237330176103484,0,0.6032709260325685,0,0.285441378583741,0
2025-03-04 10:42:06.344,0.510820341087982,0,0.38999151029035706,0,0.41176841194832986,0,0.4741380579686824,0,0.505298469844094,0,0.5549873487046872,0,,0,0.5146441935401024,0,0.5901657913412036,0,0.2829233362400848,0
2025-03-04 10:42:06.412,0.4546996571131273,0,0.3822574888929192,0,0.3729322016530449,0,0.47201825118639007,0,0.4898118835876726,0,0.5424209559672342,0,,0,0.4938966416978716,0,0.6175395820043771,0,0.2818610105933208,0
2025-03-04 10:42:06.481,0.34431084700948256,0,0.448539079696636,0,0.48871404407228425,0,0.4817887658925883,0,0.48264341863710136,0,0.49761285569572844,0,,0,0.43654209860953525,0,0.5729688950475936,0,0.2815845058856755,0
2025-03-04 10:42:06.549,0.3882963007939363,0,0.46246225875171587,0,0.4898436989432433,0,0.49649548759564927,0,0.4878362763569668,0,0.48725465372883353,0,,0,0.38842193717276524,0,0.558944057209808,0,0.2879113198999385,0
2025-03-04 10:42:06.618,0.5380155394185672,0,0.5890327841186769,0,0.5215780862368029,0,0.5056974873753932,0,0.511385777546051,0,0.5253982323513312,0,,0,0.43000812036329467,0,0.596437740066846,0,0.3019137925401389,0
2025-03-04 10:42:06.687,0.5807340290558369,0,0.5157439916789642,0,0.5374392437671315,0,0.5215240737242536,0,0.5358985609239473,0,0.5533770465036167,0,,0,0.4432584545691544,0,0.6185545927676667,0,0.3236762289310099,0
2025-03-04 10:42:06.759,0.5571238988582836,0,0.5018921571458276,0,0.5317149061990338,0,0.5293295148325277,0,0.5477584577103298,0,0.5679569125707307,0,,0,0.4610864623730407,0,0.6233267400577394,0,0.353977701959556,0
2025-03-04 10:42:06.823,0.6804420556966597,0,0.47381451778814393,0,0.5157265270154182,0,0.5191247352433559,0,0.5338021153894451,0,0.5486501026333273,0,,0,0.43508360055658396,0,0.6069160451187161,0,0.37205830804623347,0
2025-03-04 10:42:06.892,0.5663709509742625,0,0.4517544447805759,0,0.5011371115140931,0,0.502384511775151,0,0.5202501148086534,0,0.5333165494049206,0,,0,0.44553090936565837,0,0.5891826835594693,0,0.40399634653315764,0
2025-03-04 10:42:06.960,0.3772607694986178,0,0.47050213735045426,0,0.4969906377885093,0,0.4891425259545557,0,0.5053784680263963,0,0.5124239454478193,0,,0,0.4385663350026271,0,0.5724899217556036,0,0.4293122687720124,0
2025-03-04 10:42:07.029,0.6109655438587466,0,0.48077971845866085,0,0.4890326058018058,0,0.4803973449264316,0,0.49609862152721135,0,0.5067526917278261,0,,0,0.4493618688227194,0,0.4961064388755258,0,0.46050858710611753,0
2025-03-04 10:42:07.098,0.4561079973278806,0,0.5127883884759578,0,0.5004052816309549,0,0.4921919518088197,0,0.49922167214941776,0,0.5045435651869029,0,,0,0.4257042602694941,0,0.5558685297812137,0,0.4952709630822018,0
2025-03-04 10:42:07.167,0.5540947184121914,0,0.5025466317522567,0,0.5113697806807285,0,0.5047472404064339,0,0.5148065124283178,0,0.5263562420589529,0,,0,0.4378194324108766,0,0.5746645283375986,0,0.5484342721584241,0
2025-03-04 10:42:07.235,0.5557108619127205,0,0.5139360516992781,0,0.5400059964229387,0,0.5283912346211309,0,0.5365378378256954,0,0.5399694108482103,0,,0,0.5106921189391895,0,0.5828791720148132,0,0.6075819097605778,0
2025-03-04 10:42:07.311,0.5581432188152134,0,0.5212188452791531,0,0.5450253142683605,0,0.5327868703246278,0,0.5497229654092111,0,0.551186170954333,0,,0,0.4268213156742154,0,0.5904709759312803,0,0.6788224121027313,0
2025-03-04 10:42:07.373,0.544884782339521,0,0.5418495242142847,0,0.544782884258727,0,0.5402541397275833,0,0.5444769682089385,0,0.5444296297033118,0,,0,0.42427428378641724,0,0.5753121914102375,0,0.7094378082378547,0
2025-03-04 10:42:07.442,0.5897610718843574,0,0.548595836885388,0,0.5208205416500881,0,0.5271746984869504,0,0.5258636305673947,0,0.5274589611044105,0,,0,0.4149496407935071,0,0.5415878351421458,0,0.697848026170282,0
2025-03-04 10:42:07.510,0.43190165632741656,0,0.5380990082497004,0,0.48025948858213074,0,0.5225450322591791,0,0.5084384981275502,0,0.49891537506290284,0,,0,0.40939561244871076,0,0.5511962499394619,0,0.6979545202743763,0
2025-03-04 10:42:07.578,0.4955183352731799,0,0.47367330334892704,0,0.46545426530604633,0,0.4999454859325659,0,0.4926213706010652,0,0.5135033776716009,0,,0,0.4255286739333685,0,0.5290229808585145,0,0.6968577570327907,0
2025-03-04 10:42:07.647,0.5133172146022779,0,0.4378803239853761,0,0.44545391852829486,0,0.48220633342145597,0,0.4850891664492924,0,0.5169811025529613,0,,0,0.45913394327181606,0,0.555644733460609,0,0.6996749659205481,0
2025-03-04 10:42:07.716,0.5258175470105139,0,0.42110934941446637,0,0.4513176024708012,0,0.47929992582464237,0,0.49742396234086456,0,0.5255726249346871,0,,0,0.47412659442448024,0,0.4828762836937788,0,0.6975027035408793,0
2025-03-04 10:42:07.784,0.5593809816541663,0,0.4674408051218339,0,0.4933353800822478,0,0.5031096781012502,0,0.5235403541273295,0,0.5342565558029234,0,,0,0.46530344980645855,0,0.6042684808436115,0,0.7014061016718895,0
2025-03-04 10:42:07.859,0.608340451091279,0,0.5610217283507457,0,0.5444400066961009,0,0.5344477558345138,0,0.5404672087908308,0,0.532227499898011,0,,0,0.5408331994928621,0,0.597265679504623,0,0.6849976985202706,0
2025-03-04 10:42:07.922,0.6420540031165578,0,0.5206596890086697,0,0.5593122295251575,0,0.5492962862298746,0,0.5422475980154109,0,0.5284000245557563,0,,0,0.46995179051771413,0,0.5833452039267384,0,0.7237231275612759,0
2025-03-04 10:42:07.991,0.6722556348964249,0,0.47633361836158006,0,0.5359542527053817,0,0.53026086970822,0,0.5183586178385292,0,0.5145939321205297,0,,0,0.45056033737744045,0,0.5718098863332075,0,0.7029494529818499,0
2025-03-04 10:42:08.060,0.6039897230497921,0,0.4346194982947104,0,0.49638453477950556,0,0.4977897831869168,0,0.5010918187404585,0,0.505562399295564,0,,0,0.4435853887924791,0,0.5635721823893708,0,0.7012327433570861,0
2025-03-04 10:42:08.128,0.5225781876428804,0,0.4146737538038425,0,0.47717899281149884,0,0.47407413684646865,0,0.48412939317172965,0,0.4949188749064713,0,,0,0.43772742275624277,0,0.5552951847174503,0,0.6999704990108215,0
2025-03-04 10:42:08.196,0.5070086036991255,0,0.42214549022829617,0,0.4636414166342933,0,0.457011976822123,0,0.47786999092775007,0,0.4894512934560039,0,,0,0.43075945383785424,0,0.5340780454449013,0,0.6985817538214135,0
2025-03-04 10:42:08.265,0.48710106111030094,0,0.43867066234022645,0,0.4687835836095123,0,0.46282696095616466,0,0.4871185950115951,0,0.49714019227030937,0,,0,0.4293508185053716,0,0.5263220394211342,0,0.6980692540010545,0
2025-03-04 10:42:08.333,0.49198093917831237,0,0.5190377925264619,0,0.48318214742910126,0,0.47314984296885565,0,0.4987791829736786,0,0.5128627394603562,0,,0,0.4406313218370703,0,0.5537220651887231,0,0.7008776501084689,0
2025-03-04 10:42:08.410,0.5030524227222585,0,0.5058192461224498,0,0.5006057521581289,0,0.4836553325070434,0,0.5155824869172498,0,0.5346437814704879,0,,0,0.4617373901964672,0,0.5861114684602359,0,0.6709122824767663,0
2025-03-04 10:42:08.470,0.49599371940236564,0,0.4266267748373173,0,0.5130893194745297,0,0.4937250383530925,0,0.5241612170512818,0,0.5620480129655432,0,,0,0.5213453614092309,0,0.6031634904434962,0,0.706234099939439,0
2025-03-04 10:42:08.538,0.49585412418677366,0,0.43303022239006655,0,0.5106805910174639,0,0.48912987426524146,0,0.5182015376370755,0,0.5262682948292574,0,,0,0.5131123446964856,0,0.5875545067707915,0,0.6648224057915485,0
2025-03-04 10:42:08.610,0.48195103261320377,0,0.4423729580242869,0,0.5031200105484088,0,0.4850640009609438,0,0.508088034711805,0,0.45771592146821677,0,,0,0.38183709058447823,0,0.571839823979671,0,0.6311362177975275,0
2025-03-04 10:42:08.675,0.4608673875727505,0,0.4628565747104895,0,0.49135059758871796,0,0.4811539411720297,0,0.49477262334887123,0,0.4549641744665348,0,,0,0.489007927885665,0,0.5495219841482925,0,0.6297663985136301,0
2025-03-04 10:42:08.743,0.47066492784971264,0,0.4712453505565677,0,0.47719449037234535,0,0.47298898324789335,0,0.4876538726545212,0,0.4700862212411902,0,,0,0.4151054212552905,0,0.5440501725819185,0,0.6048198583198228,0
2025-03-04 10:42:08.812,0.5061074468818708,0,0.4712254222372571,0,0.45219652029751767,0,0.46409298434934404,0,0.4919060423515656,0,0.5117809819226079,0,,0,0.5245436806842811,0,0.5632394084818619,0,0.5683818931734171,0
2025-03-04 10:42:08.880,0.5651083844671932,0,0.47293118394035816,0,0.46462817043355276,0,0.4735064740773305,0,0.5145940273262023,0,0.5407731561335067,0,,0,0.557046036222182,0,0.6006723825907158,0,0.5120119907586591,0
2025-03-04 10:42:08.949,0.6296679511084162,0,0.4971958343325803,0,0.5005013493646133,0,0.5023851058138308,0,0.5419545058619459,0,0.5621700484216086,0,,0,0.5158185439443551,0,0.6453841062336672,0,0.4337982001366883,0
2025-03-04 10:42:09.019,0.5979217878432961,0,0.5395151015188874,0,0.5481987709254119,0,0.5383463839056536,0,0.5665634398447134,0,0.576217245366894,0,,0,0.5480866216358442,0,0.6661350522973539,0,0.45593669843435425,0
2025-03-04 10:42:09.087,0.621579630444782,0,0.5493403915085912,0,0.5704455455192855,0,0.554799627319844,0,0.5677278588208298,0,0.5934983342163545,0,,0,0.5514445059260138,0,0.6699433975201285,0,0.43091452643237427,0
2025-03-04 10:42:09.160,0.42344245333425834,0,0.5632407583685114,0,0.5720189168018762,0,0.5559535723012317,0,0.564996638476528,0,0.5671186050363529,0,,0,0.5631371626447113,0,0.6647234681077959,0,0.41356046400850854,0
2025-03-04 10:42:09.224,0.3673145673588609,0,0.5683010829240062,0,0.5566150496899388,0,0.5736095666276328,0,0.5114634654570696,0,0.4374790485393868,0,,0,0.5494334696221774,0,0.6405135734111795,0,0.4439233672759657,0
2025-03-04 10:42:09.293,0.60098372303518,0,0.5443090816971868,0,0.5225150238712784,0,0.5715032054645911,0,0.5585873130666732,0,0.4809929422568466,0,,0,0.48675051857088114,0,0.5190499381460203,0,0.42717926906303527,0
2025-03-04 10:42:09.361,0.4050960501337783,0,0.5343060384519287,0,0.5214481197963614,0,0.5614039601547659,0,0.5462891508623885,0,0.501276250388666,0,,0,0.4713527202808399,0,0.5825880748624821,0,0.4281709629211001,0
2025-03-04 10:42:09.430,0.45255192162310615,0,0.520641373344432,0,0.5251572831693925,0,0.5611815251205636,0,0.5431393420387022,0,0.497243865273385,0,,0,0.5346901381037465,0,0.5989818521588124,0,0.4311296525177702,0
2025-03-04 10:42:09.498,0.4323484461868946,0,0.5210624923462169,0,0.5415142095074555,0,0.5755970242216332,0,0.5590646211912345,0,0.5636107637053832,0,,0,0.5795932159946182,0,0.5809632171790041,0,0.43501104077043934,0
2025-03-04 10:42:09.567,0.4905681600325379,0,0.5320629034791156,0,0.5586685669516103,0,0.5977606996451545,0,0.5836041378599801,0,0.5350130730558542,0,,0,0.5164674937508991,0,0.5584853870038573,0,0.4436567990668364,0
2025-03-04 10:42:09.635,0.5132170347763332,0,0.5264714752206586,0,0.5558888757871576,0,0.6082277661635932,0,0.5934696294402665,0,0.5741004064735571,0,,0,0.47455776274900663,0,0.5770407976235513,0,0.45354865822337137,0
2025-03-04 10:42:09.710,0.5134814896106548,0,0.5050262735112886,0,0.5439031382089902,0,0.605649397980733,0,0.5830518903181018,0,0.5223838409129206,0,,0,0.4288588852000373,0,0.44866518968582453,0,0.442943610556712,0
2025-03-04 10:42:09.772,0.4931571246441369,0,0.48203826640121256,0,0.5282657440913429,0,0.5099762018803923,0,0.4827436293333665,0,0.41460792971183674,0,,0,0.45073928634356925,0,0.4151752624452376,0,0.48130164835124206,0
2025-03-04 10:42:09.840,0.5455334855430247,0,0.4518369552361341,0,0.5024197548216932,0,0.5573486009092199,0,0.4956398971835685,0,0.40652770207819844,0,,0,0.4221562694305907,0,0.43542846107217004,0,0.4839309946992061,0
2025-03-04 10:42:09.909,0.4179601729032745,0,0.458277699561423,0,0.4678070768872202,0,0.5425410949062639,0,0.51823172373301,0,0.45896863271943805,0,,0,0.4217645079556508,0,0.43258780866797475,0,0.47988751797784795,0
2025-03-04 10:42:09.977,0.409103722568234,0,0.44053883202560823,0,0.5095291122827328,0,0.5400277647494732,0,0.525957542417204,0,0.4829840425303522,0,,0,0.46991567668441314,0,0.4553478222654982,0,0.47582663745465664,0
2025-03-04 10:42:10.046,0.4076295847339363,0,0.5035413602562137,0,0.5154540350459558,0,0.5523885516086836,0,0.5427750016268766,0,0.5298739578682123,0,,0,0.5356516952179036,0,0.4893658054965369,0,0.47409604087585266,0
2025-03-04 10:42:10.114,0.5319697472923448,0,0.6260068872520932,0,0.6051125752382551,0,0.5636002347012403,0,0.5330850129591704,0,0.5612991358893902,0,,0,0.5629615449246644,0,0.6256334957054074,0,0.47214645255012455,0
2025-03-04 10:42:10.183,0.3970144698013856,0,0.5193272300649064,0,0.5821780012397965,0,0.5994004651263914,0,0.5921476630604422,0,0.6416717206742387,0,,0,0.58652282868743,0,0.6226693230901412,0,0.47022411927481345,0
2025-03-04 10:42:10.259,0.3929259662444019,0,0.5024846346829723,0,0.5437551649102262,0,0.5414408817259186,0,0.5130984524255263,0,0.5515267263780634,0,,0,0.5125685138659973,0,0.36764801907369427,0,0.4727257200023451,0
2025-03-04 10:42:10.319,0.393546129914398,0,0.4193815616734566,0,0.3746081536812043,0,0.38384892850812,0,0.4040765529833601,0,0.38709490913163436,0,,0,0.4337344514557442,0,0.2975429689068462,0,0.4556896681056315,0
2025-03-04 10:42:10.388,0.3936851365022483,0,0.35955615585514333,0,0.310083863642973,0,0.3046993972533617,0,0.34212387713549547,0,0.385063004463509,0,,0,0.3936498243223418,0,0.28653234805666894,0,0.4522934819838546,0
2025-03-04 10:42:10.459,0.3262420342119795,0,0.3886477835256712,0,0.34051026226300857,0,0.3030093035764331,0,0.4069769804378523,0,0.3711615878929482,0,,0,0.3158983882601913,0,0.2513315269434521,0,0.4437319331399659,0
2025-03-04 10:42:10.525,0.35166790021224276,0,0.39106710965154623,0,0.34464958929750444,0,0.32807327795334407,0,0.42231511630318935,0,0.42879297375978975,0,,0,0.4714471666635188,0,0.2696322765216147,0,0.4338583986663074,0
2025-03-04 10:42:10.594,0.495523490746772,0,0.4119902428963318,0,0.34241500851407713,0,0.3541912228044717,0,0.4652176264272449,0,0.4716363026298444,0,,0,0.5320227803924154,0,0.39060654511939963,0,0.4296471465756107,0
2025-03-04 10:42:10.662,0.5268792201307009,0,0.4320672067632382,0,0.3891554374347716,0,0.45022022717327537,0,0.5032885858535859,0,0.5181179055244762,0,,0,0.485800785656552,0,0.577588801711334,0,0.4314936969906962,0
2025-03-04 10:42:10.730,0.62155673013793,0,0.5467124405521903,0,0.6036192333044174,0,0.6058944820183054,0,0.624928227455697,0,0.6412244972623556,0,,0,0.594375341168024,0,0.6591506949759738,0,0.4394881370961419,0
2025-03-04 10:42:10.800,0.6098502486492909,0,0.6256691027425048,0,0.6427800233559403,0,0.6384920975879245,0,0.5877193924661058,0,0.5776843773011336,0,,0,0.45015540638594814,0,0.5149438927644315,0,0.4505162822027654,0
2025-03-04 10:42:10.869,0.3929354681597131,0,0.5133098010328893,0,0.4981598935331459,0,0.5130912262712182,0,0.477786110930189,0,0.44921505671775136,0,,0,0.37047504965619227,0,0.363116027192098,0,0.4523013898408374,0
2025-03-04 10:42:10.937,0.4454259269631555,0,0.42415764738449324,0,0.3978840524313723,0,0.4558501303086896,0,0.4309976897573605,0,0.4470499585481511,0,,0,0.40299159803689294,0,0.44275762386333095,0,0.4638062209280347,0
2025-03-04 10:42:11.010,0.3684246209720111,0,0.4602691624848739,0,0.43607346231640026,0,0.47171421920418893,0,0.47440908908077134,0,0.479063555069322,0,,0,0.40365990676433355,0,0.4655004810861441,0,0.46802335062002115,0
2025-03-04 10:42:11.074,0.4910006007770327,0,0.4679184433745365,0,0.48675702196289133,0,0.49859015702324366,0,0.4898812242006746,0,0.4988492963000071,0,,0,0.42347286992352307,0,0.4599836120669055,0,0.5206917294790482,0
2025-03-04 10:42:11.143,0.47364192050383075,0,0.46266557094831856,0,0.47950128173704565,0,0.4919690739023303,0,0.5003085470426504,0,0.4861189810350919,0,,0,0.42731765421227413,0,0.49607112255115693,0,0.5405931580228395,0
2025-03-04 10:42:11.211,0.5684645848161307,0,0.47474392460998166,0,0.48136632907059174,0,0.5056227366073008,0,0.5378153652723432,0,0.5078220831129558,0,,0,0.5067501649658599,0,0.4972978456689396,0,0.5430011586171082,0
2025-03-04 10:42:11.279,0.5646042097925249,0,0.5182721220375408,0,0.49173338746975376,0,0.5167530003474196,0,0.5627376070583641,0,0.5288746010147228,0,,0,0.5010980228667606,0,0.5137854543843997,0,0.5480068110464069,0
2025-03-04 10:42:11.348,0.5872394603578794,0,0.515528072751588,0,0.5009315043486613,0,0.5090211186937149,0,0.5598818957914229,0,0.5112148309017169,0,,0,0.49177525142755224,0,0.48048891542263256,0,0.5525894736017632,0
2025-03-04 10:42:11.416,0.5899287970877503,0,0.504689056648465,0,0.5080452869234079,0,0.5126290658450285,0,0.5407773835737198,0,0.5169099585289785,0,,0,0.46074411634089724,0,0.44504415494421956,0,0.5549298409956616,0
2025-03-04 10:42:11.484,0.5180853252819704,0,0.4686849734308822,0,0.4749952978396731,0,0.5025624039532904,0,0.48610283760890294,0,0.4383738665550356,0,,0,0.3957727729153983,0,0.41310540449310523,0,0.5534873433034881,0
2025-03-04 10:42:11.553,0.3941144023471955,0,0.4253195720440058,0,0.4507477949559645,0,0.46592495288956903,0,0.4895656413068493,0,0.4565681682269704,0,,0,0.40656305399166404,0,0.4031196083614049,0,0.5492877408695963,0
2025-03-04 10:42:11.621,0.5071529488351091,0,0.48023878566836764,0,0.38230437030385445,0,0.41534416245422584,0,0.4814419948293659,0,0.4073299096289647,0,,0,0.4095026627408736,0,0.4131079043682367,0,0.5473125312411538,0
2025-03-04 10:42:11.689,0.5171804160465178,0,0.4459201224800267,0,0.42259807510621367,0,0.4355137991518926,0,0.5079851832791572,0,0.4441528040217268,0,,0,0.40241510918599227,0,0.4256309499460208,0,0.5387531337842932,0
2025-03-04 10:42:11.759,0.5556538401519606,0,0.4666367641893034,0,0.490817836044746,0,0.4801607215478286,0,0.5708152895268744,0,0.5230299740050367,0,,0,0.4745844172813484,0,0.48533388145217354,0,0.5354639271219063,0
2025-03-04 10:42:11.827,0.5944074672527841,0,0.5264846283025568,0,0.5046139369899094,0,0.5403565566486481,0,0.5930826461881158,0,0.558789117700171,0,,0,0.4908427767400347,0,0.5005604629413464,0,0.5327674140384916,0
2025-03-04 10:42:11.896,0.6159681060438671,0,0.5173865075782634,0,0.5140555549962318,0,0.5601411682150637,0,0.6031624441364273,0,0.5630705725412469,0,,0,0.5548469711740147,0,0.5553083330669921,0,0.5792373460807343,0
2025-03-04 10:42:11.965,0.6067016787172674,0,0.5559405423527499,0,0.5432034602901781,0,0.5912172910056231,0,0.5325298172098223,0,0.5579277622641275,0,,0,0.5241160976846486,0,0.5417356859888799,0,0.5910725644034779,0
2025-03-04 10:42:12.034,0.5238379543785308,0,0.5548701251417529,0,0.486584666934066,0,0.4862237997985654,0,0.46902302527061634,0,0.45370622868204075,0,,0,0.3874852872221627,0,0.4618963930537246,0,0.5651966611296184,0
2025-03-04 10:42:12.109,0.545345985534735,0,0.455580042981922,0,0.45825566053343775,0,0.47255167908440243,0,0.46433256101651155,0,0.48700762399759684,0,,0,0.49932261987844767,0,0.49409475911670464,0,0.5331162409091439,0
2025-03-04 10:42:12.171,0.5166956033570879,0,0.47220480099722056,0,0.4484519171163981,0,0.4599518787297435,0,0.46519532358703797,0,0.47476799842214057,0,,0,0.5060943525516339,0,0.4962469290152013,0,0.5426497721581836,0
2025-03-04 10:42:12.239,0.5022904366000184,0,0.4662007795422691,0,0.4616845295309225,0,0.47728391602623615,0,0.5007393288336487,0,0.4947822128090883,0,,0,0.5331419767716414,0,0.5305767748681216,0,0.528317992004995,0
2025-03-04 10:42:12.309,0.5493166315374881,0,0.5144211576849954,0,0.4753424877254483,0,0.5100260007924282,0,0.5674252566201061,0,0.5429662458325957,0,,0,0.5575499423110751,0,0.5573778195424229,0,0.5150040447595711,0
2025-03-04 10:42:12.376,0.6087351685218264,0,0.5848016761974735,0,0.5189941092975314,0,0.5474747011957458,0,0.6230806868788098,0,0.6006632706129841,0,,0,0.5678606638603877,0,0.5891915308793046,0,0.5424941771653895,0
2025-03-04 10:42:12.445,0.7149652571599481,0,0.7287622789975088,0,0.6434708677934425,0,0.6381260989633647,0,0.6747605792145781,0,0.6416489588750571,0,,0,0.583160314596481,0,0.5665305454130766,0,0.5513047637893299,0
2025-03-04 10:42:12.514,0.6578962969685068,0,0.6676619180612181,0,0.6463941318307034,0,0.6483950238677116,0,0.6664158336923942,0,0.649053583408692,0,,0,0.6189550432794111,0,0.5939394368288795,0,0.49449569507247737,0
2025-03-04 10:42:12.582,0.6187104560906967,0,0.6072957329761229,0,0.5843345771566801,0,0.5860612415298418,0,0.5993384482769897,0,0.5693167898015672,0,,0,0.5657581166577189,0,0.5304568420835684,0,0.45069924859244753,0
2025-03-04 10:42:12.650,0.5702540048522026,0,0.5663857457184767,0,0.5281033129315528,0,0.5207788090333886,0,0.5248776477448195,0,0.5215118948225653,0,,0,0.5389195442638258,0,0.4999777944382533,0,0.46118376569568964,0
2025-03-04 10:42:12.719,0.46863440668661466,0,0.5499841542508017,0,0.5147264173719709,0,0.5067133497007748,0,0.5442959646891773,0,0.5347267303017611,0,,0,0.538676683257599,0,0.5259755051375322,0,0.47266841036293983,0
2025-03-04 10:42:12.788,0.45543547948679247,0,0.5740239891994191,0,0.5306405291683988,0,0.5326711203162406,0,0.5847706194242895,0,0.5562626897042109,0,,0,0.5105028097083689,0,0.4985842621467559,0,0.4881931239407184,0
2025-03-04 10:42:12.859,0.5520507755478273,0,0.5627056854901261,0,0.5443429361155873,0,0.543777555843129,0,0.593689725731601,0,0.5792612705209379,0,,0,0.5182430209010208,0,0.5038027072456003,0,0.5019464600335862,0
2025-03-04 10:42:12.925,0.44311514318108686,0,0.5784535908399449,0,0.5650538290537722,0,0.5719353877625329,0,0.6058480207282622,0,0.619223473662979,0,,0,0.543702614222004,0,0.5069913174758265,0,0.5129357701305323,0
2025-03-04 10:42:12.994,0.5254245214398526,0,0.5674459218183594,0,0.5804027474685083,0,0.5814097762490008,0,0.6013439749567494,0,0.6263370303480598,0,,0,0.5288388803469649,0,0.4989955484810213,0,0.5214347413458932,0
2025-03-04 10:42:13.062,0.5979959262519001,0,0.5504308125484808,0,0.5659043521964361,0,0.5602974474907877,0,0.5755613921197849,0,0.5963052970848337,0,,0,0.533891312310884,0,0.4910018026551737,0,0.5253419912472573,0
2025-03-04 10:42:13.131,0.4726076093086859,0,0.5385472416283099,0,0.539675366286978,0,0.5114072823186345,0,0.5245559983864183,0,0.5637211730332358,0,,0,0.5210380151109364,0,0.4722398207165785,0,0.5105570183672516,0
2025-03-04 10:42:13.209,0.5069416926512913,0,0.5358395668667629,0,0.5117616228433701,0,0.48749116666761666,0,0.5248902713234764,0,0.556343356930097,0,,0,0.5194293823637953,0,0.4714337479561475,0,0.46254786002364956,0
2025-03-04 10:42:13.269,0.5007281311764191,0,0.5356089084230772,0,0.5116414675918282,0,0.5041072760162864,0,0.4592777368997519,0,0.44078456443872477,0,,0,0.5031296134610751,0,0.4927209686214572,0,0.37967220248098144,0
2025-03-04 10:42:13.337,0.5134959977226283,0,0.5400708765372931,0,0.5106346653282231,0,0.5165507599898079,0,0.4785619912942213,0,0.48797106776963267,0,,0,0.5906320961581458,0,0.5236615726666491,0,0.28945303001675265,0
2025-03-04 10:42:13.409,0.5161219237597785,0,0.5646019920507096,0,0.5531888772405626,0,0.5199686571621484,0,0.5247555533791477,0,0.5199432001853473,0,,0,0.6129990407860477,0,0.5576288828200593,0,0.23629581968961189,0
2025-03-04 10:42:13.475,0.5907746528305565,0,0.6068581362129591,0,0.5961632466335354,0,0.5544843005158192,0,0.5673261172643281,0,0.5580853401750782,0,,0,0.638612727353897,0,0.6003454559750893,0,0.4063983837840603,0
2025-03-04 10:42:13.543,0.5917229691527873,0,0.6449604029268368,0,0.6224116114628306,0,0.6125077804260478,0,0.6022340330911301,0,0.6017580252965191,0,,0,0.6361815968938997,0,0.6109415954908552,0,0.4885839407983287,0
2025-03-04 10:42:13.611,0.5572773827132018,0,0.662141362198384,0,0.6502229531172817,0,0.635436202342631,0,0.6290580568463054,0,0.6171541014484565,0,,0,0.5804361880418502,0,0.5810703878857684,0,0.49041178501140975,0
2025-03-04 10:42:13.681,0.5291485131384925,0,0.6473788567642299,0,0.6224100046126266,0,0.6345475995031234,0,0.6306507668401115,0,0.6037895569302647,0,,0,0.5515737066828743,0,0.5298391717785215,0,0.4705428077804705,0
2025-03-04 10:42:13.750,0.43538291938539425,0,0.5817585904459616,0,0.5565781350134441,0,0.5775387682801134,0,0.5690691536646516,0,0.5676901717850437,0,,0,0.5105657820926044,0,0.4798586053983691,0,0.4211721182965186,0
2025-03-04 10:42:13.819,0.4177315276892045,0,0.5393250123233398,0,0.5180084150609796,0,0.5386564158962456,0,0.5567350880484783,0,0.5360723553761796,0,,0,0.5060844928652538,0,0.4713157772692939,0,0.35372831923229275,0
2025-03-04 10:42:13.889,0.35895930288638567,0,0.4665819310817979,0,0.47776205659708115,0,0.510006805492227,0,0.5365813917868388,0,0.5128172593217271,0,,0,0.49311284452582627,0,0.45383261403763564,0,0.30650979339130546,0
2025-03-04 10:42:13.959,0.28808142314750124,0,0.48965940099451777,0,0.48423163543922765,0,0.5127057341475257,0,0.5343334191052992,0,0.5008612762269307,0,,0,0.4735792850751739,0,0.4680619444244976,0,0.2955540797947843,0
2025-03-04 10:42:14.027,0.37654476049065577,0,0.5053045715548407,0,0.5033224208038707,0,0.5356479896246987,0,0.5545751854935161,0,0.5163983039105664,0,,0,0.4541353696215948,0,0.4543225789293333,0,0.3077924870305803,0
2025-03-04 10:42:14.096,0.4498802764285256,0,0.5334345343217056,0,0.53822117322547,0,0.5724017336687544,0,0.5788062526828649,0,0.5342905570610326,0,,0,0.46020991413678564,0,0.4577778386581378,0,0.32723315333093905,0
2025-03-04 10:42:14.165,0.5221069568286096,0,0.5769434007266656,0,0.5697657030359186,0,0.5947464367826837,0,0.57544634201261,0,0.5444875250634185,0,,0,0.492885442477136,0,0.45827007427786887,0,0.3451957566718538,0
2025-03-04 10:42:14.233,0.5565472141662811,0,0.5425332424473339,0,0.5564021008050439,0,0.5820172655267626,0,0.5434326453587239,0,0.5005888361467651,0,,0,0.5069548695879644,0,0.46382524310956946,0,0.3641754419019083,0
2025-03-04 10:42:14.302,0.49987555967073377,0,0.4941975322198045,0,0.5064935390135257,0,0.5355179659647545,0,0.4767521080173703,0,0.44768927140375736,0,,0,0.5186936739716522,0,0.46837831213782005,0,0.37741675585177703,0
2025-03-04 10:42:14.370,0.46462784505366783,0,0.46150580562972093,0,0.465288170833746,0,0.46372784976625164,0,0.44560715640498316,0,0.4229604785688403,0,,0,0.520111843083422,0,0.4614397805507754,0,0.39241894392820015,0
2025-03-04 10:42:14.438,0.5066689582213023,0,0.5065500804255842,0,0.46074828466297824,0,0.4707868588922826,0,0.4408564923512632,0,0.4299663882223047,0,,0,0.5240022789662317,0,0.5044370147738457,0,0.4032160440625231,0
2025-03-04 10:42:14.509,0.47242164014919397,0,0.5287947090547668,0,0.47563065184053394,0,0.47308264931810334,0,0.4566380482994191,0,0.4310930326155867,0,,0,0.5030066492516959,0,0.5051512188643641,0,0.40944102696190066,0
2025-03-04 10:42:14.576,0.533444941944386,0,0.5590086091354223,0,0.5016411127607615,0,0.49351666579809295,0,0.49835746802734676,0,0.48459916323047564,0,,0,0.4488690776122446,0,0.49630423088487685,0,0.4003145327077578,0
2025-03-04 10:42:14.645,0.5566768314611046,0,0.5555849305056066,0,0.5372870246308243,0,0.5227810186945888,0,0.5382397510478353,0,0.5336332691631169,0,,0,0.4850634783933277,0,0.5156748120197246,0,0.3768793795690809,0
2025-03-04 10:42:14.714,0.5365878392987792,0,0.562247558915352,0,0.5651982125058388,0,0.5625236661823365,0,0.5858024890071414,0,0.5625851262128075,0,,0,0.5483893525892488,0,0.5343687584936613,0,0.33939809851216085,0
2025-03-04 10:42:14.786,0.5213866320373541,0,0.6173525365565233,0,0.5859549951090396,0,0.5941219031558289,0,0.6217257671262122,0,0.5913695562007149,0,,0,0.5582518843912067,0,0.5486759500643745,0,0.37081912183440685,0
2025-03-04 10:42:14.859,0.4893933880905481,0,0.6116393173034038,0,0.5851817187976901,0,0.6029195669652059,0,0.6065368633739902,0,0.5853906933610602,0,,0,0.537081057302471,0,0.5375551450620197,0,0.3767232921090482,0
2025-03-04 10:42:14.919,0.48832877243886363,0,0.5870314936138865,0,0.5671141574554132,0,0.5824918239525371,0,0.5578703579452253,0,0.5328389717283987,0,,0,0.4969601688581705,0,0.5072946343599439,0,0.3572765721726037,0
2025-03-04 10:42:14.988,0.4881321162609747,0,0.560758390050046,0,0.5463066063675251,0,0.5534191313488013,0,0.509775216165762,0,0.5060444570701679,0,,0,0.48526277586578764,0,0.4815037424844829,0,0.32104953747936527,0
2025-03-04 10:42:15.059,0.4755276407765926,0,0.5479833088018342,0,0.5303541240547202,0,0.5268581745304477,0,0.48601233001802685,0,0.47969692653394014,0,,0,0.49296010386187217,0,0.47181863341949415,0,0.28357386012104824,0
2025-03-04 10:42:15.125,0.45604053307313264,0,0.538149618933621,0,0.5161046409552237,0,0.5121702307499065,0,0.49906362021766343,0,0.5025064050888179,0,,0,0.5184838836242347,0,0.47299447085270024,0,0.2707779051681073,0
2025-03-04 10:42:15.194,0.4489970364325099,0,0.5389728765465096,0,0.515313244661992,0,0.5146274329552772,0,0.5297100364340483,0,0.540302300568118,0,,0,0.5453118434750772,0,0.48641311988083863,0,0.27450818046746506,0
2025-03-04 10:42:15.263,0.4627040939423596,0,0.5438892593030848,0,0.521098763507131,0,0.5319354355204127,0,0.5643052081339022,0,0.5649335072173731,0,,0,0.5599739851625616,0,0.5068930420038387,0,0.29752531244166874,0
2025-03-04 10:42:15.331,0.4909730606182482,0,0.5505158130171147,0,0.5394265630867447,0,0.558745356929435,0,0.5974927862015444,0,0.5925104617825825,0,,0,0.5684070978012173,0,0.5235392943278516,0,0.3269521316364934,0
2025-03-04 10:42:15.399,0.4993150462368718,0,0.5563026249176929,0,0.5580153699730495,0,0.5817605639595023,0,0.605626396050507,0,0.5869079088968803,0,,0,0.5603165870057083,0,0.5259572508791251,0,0.3497076866422618,0
2025-03-04 10:42:15.468,0.5135404964964287,0,0.5485606560581712,0,0.5652784045127125,0,0.5881264944304695,0,0.5845741911850555,0,0.5669210803642666,0,,0,0.5419224104061549,0,0.5111136039829256,0,0.36439148165428,0
2025-03-04 10:42:15.536,0.5223572976468188,0,0.5403872056366092,0,0.5560724733035802,0,0.5810108235552861,0,0.5543101714109195,0,0.5393601106775903,0,,0,0.5156973900589944,0,0.4950187805907513,0,0.3756009940842379,0
2025-03-04 10:42:15.609,0.5378530110848062,0,0.5285228496412173,0,0.540672933406159,0,0.5611867970650896,0,0.527148474181596,0,0.5140427148930837,0,,0,0.48801406466599273,0,0.47795148194038845,0,0.3812977300855168,0
2025-03-04 10:42:15.673,0.5281735812702663,0,0.5132847948727778,0,0.5210756390812116,0,0.5404341357343724,0,0.509797320842828,0,0.4972790195287781,0,,0,0.4700689719832752,0,0.46209607594291063,0,0.39319799861653926,0
2025-03-04 10:42:15.741,0.49629097411697437,0,0.5024978811593254,0,0.5076562782702985,0,0.5238090740475666,0,0.504360440844447,0,0.4919425161161708,0,,0,0.46699793418279406,0,0.4550573520852806,0,0.4132751594498026,0
2025-03-04 10:42:15.809,0.48510071725050447,0,0.5049146862170114,0,0.5064551161425884,0,0.5217772957337906,0,0.5115575720883327,0,0.5006354225421544,0,,0,0.4866841761318128,0,0.46121800686831194,0,0.4299946207865874,0
2025-03-04 10:42:15.878,0.4944269095435519,0,0.5293564694085517,0,0.5248315335915413,0,0.5373591600213468,0,0.5365515420205192,0,0.5307315228829527,0,,0,0.5188303500259355,0,0.4855783057067528,0,0.4409422924371083,0
2025-03-04 10:42:15.946,0.5184255586709953,0,0.5681146356409273,0,0.5524208830343876,0,0.5677593530343447,0,0.5502157164043922,0,0.5592698147525534,0,,0,0.5590695048798847,0,0.5212034027027423,0,0.4386390330543989,0
2025-03-04 10:42:16.015,0.5448455757270855,0,0.5960679845545087,0,0.5749685635671581,0,0.5919029039823638,0,0.5898624357646647,0,0.5733142617531859,0,,0,0.5767804987885279,0,0.5461083341109161,0,0.4157528816058108,0
2025-03-04 10:42:16.083,0.5586437569243858,0,0.5979982940675148,0,0.5820332030991837,0,0.5981700491147888,0,0.5885549003690086,0,0.5652580735278449,0,,0,0.5726629786051322,0,0.5428690203527379,0,0.38323376612202986,0
2025-03-04 10:42:16.160,0.5199011798389683,0,0.5864059479787802,0,0.572093652480552,0,0.5882013691784548,0,0.5743974957824125,0,0.5459928803648281,0,,0,0.5488538145758219,0,0.5239394780774913,0,0.3501383740536337,0
2025-03-04 10:42:16.220,0.49221984067748725,0,0.5662943407910409,0,0.5601682169602816,0,0.5674364385850612,0,0.5571875878367203,0,0.5313119013147461,0,,0,0.5255756708922847,0,0.493387259916359,0,0.3310857013963133,0
2025-03-04 10:42:16.288,0.46507431164179075,0,0.5492709130427355,0,0.5428576161766815,0,0.5516994943011685,0,0.5423114874096615,0,0.5262881192720331,0,,0,0.5125079411982643,0,0.4751778308846132,0,0.319717145968041,0
2025-03-04 10:42:16.359,0.452592995503192,0,0.5400958650749468,0,0.5253042998336075,0,0.5407672060740938,0,0.526360107820474,0,0.5223744419529435,0,,0,0.5275883735326328,0,0.46398324206334635,0,0.32226934821795095,0
2025-03-04 10:42:16.425,0.4633041240086907,0,0.5431456195642242,0,0.5202717919520663,0,0.5433226781613869,0,0.5170140358563127,0,0.5195434183466017,0,,0,0.5520694024577603,0,0.47212532252185213,0,0.3329909084366156,0
2025-03-04 10:42:16.493,0.4767814646071145,0,0.5188575747647556,0,0.524252514642734,0,0.5536464940500101,0,0.5225418494092124,0,0.523258383045782,0,,0,0.5735313609010895,0,0.4882078561822005,0,0.3416040622943206,0
2025-03-04 10:42:16.561,0.4800885564680358,0,0.5673746422378911,0,0.5455842177611226,0,0.5687419077534682,0,0.5438464298739989,0,0.535695603755033,0,,0,0.5825947908249509,0,0.511209538331357,0,0.34487773350964357,0
2025-03-04 10:42:16.630,0.4802287088792561,0,0.5843502349708599,0,0.56766914682565,0,0.5853968879153894,0,0.5710607912414449,0,0.5509365746706747,0,,0,0.587614754429474,0,0.5322638212795542,0,0.3395696914436221,0
2025-03-04 10:42:16.698,0.4765273824416043,0,0.6082992685277898,0,0.5757007312917034,0,0.5955131337355587,0,0.5851747878983837,0,0.5570922624752617,0,,0,0.574942151901699,0,0.5384358519875819,0,0.3292797186717313,0
2025-03-04 10:42:16.766,0.48049857570356175,0,0.597173459064101,0,0.5693809090963226,0,0.5931282791606988,0,0.5777934073587477,0,0.5449036014242805,0,,0,0.5431315184487399,0,0.529148045958338,0,0.32247594756721976,0
2025-03-04 10:42:16.835,0.48433325785891446,0,0.5867322646878315,0,0.5501545105540557,0,0.5749154106983654,0,0.5566529211864264,0,0.5238448272616205,0,,0,0.5229206698700094,0,0.5150018767485925,0,0.31599906149223744,0
2025-03-04 10:42:16.909,0.47898362642803427,0,0.5742423013544059,0,0.5356360965764564,0,0.5577977458206366,0,0.5275194322348423,0,0.5005576008196928,0,,0,0.507298692550603,0,0.5117184778593619,0,0.31593984387437896,0
2025-03-04 10:42:16.972,0.4874269647659929,0,0.5585611361900736,0,0.521852316027649,0,0.5367008736455495,0,0.5099461573518627,0,0.49067180684701867,0,,0,0.5112641218435439,0,0.5048703696104511,0,0.32479602285344145,0
2025-03-04 10:42:17.040,0.4844238007125852,0,0.562039097616496,0,0.5203438328202207,0,0.5331619825724035,0,0.5028690654636206,0,0.49082055998806934,0,,0,0.5271225426930611,0,0.5065975134377674,0,0.3348366803337059,0
2025-03-04 10:42:17.109,0.4805945362478041,0,0.563529604691575,0,0.5241864651367028,0,0.5295968292637911,0,0.509857703145034,0,0.495980692539424,0,,0,0.5304572354772377,0,0.48779721138239024,0,0.3456651910472728,0
2025-03-04 10:42:17.177,0.49661625208375276,0,0.5439470000377767,0,0.5215807539898745,0,0.532819566077566,0,0.5321615011252052,0,0.5173702154777406,0,,0,0.5455374332900592,0,0.49117691973482974,0,0.3529217278913629,0
2025-03-04 10:42:17.246,0.5074625703035327,0,0.525029933433391,0,0.5301330632462014,0,0.5349293900490394,0,0.5563502265528515,0,0.5413976228346341,0,,0,0.5574546337952355,0,0.5117731929580164,0,0.35259112661753794,0
2025-03-04 10:42:17.315,0.5189022108958746,0,0.5335843045272948,0,0.5527259832142037,0,0.5659339504074045,0,0.5795718421152803,0,0.5562856871329318,0,,0,0.555251385493352,0,0.5291513065134663,0,0.3442905146122969,0
2025-03-04 10:42:17.383,0.518066472456972,0,0.5445941851172067,0,0.5616840762547491,0,0.5797772549629524,0,0.5818872280263632,0,0.5480579817876516,0,,0,0.5395550094171089,0,0.5365370146401941,0,0.3312042056119892,0
2025-03-04 10:42:17.459,0.4856899704741783,0,0.5601064143931815,0,0.5511303101147834,0,0.5752703043047944,0,0.5630775620277576,0,0.5243169670715517,0,,0,0.5145037544177711,0,0.5227644853648485,0,0.3185640044728714,0
2025-03-04 10:42:17.519,0.46625777347515246,0,0.5670121624739376,0,0.5381887787069402,0,0.55347380752656,0,0.5254635558458306,0,0.5027692187711204,0,,0,0.5081480735386008,0,0.48595385149152176,0,0.3136073689992924,0
2025-03-04 10:42:17.588,0.4509599534780955,0,0.5579518940701259,0,0.5305216240907772,0,0.5293133506250833,0,0.4969532765828896,0,0.4798224328219796,0,,0,0.4936884528549059,0,0.4661654930590714,0,0.3136978667025928,0
2025-03-04 10:42:17.660,0.4740935575502661,0,0.5495744314924726,0,0.5221246947392548,0,0.5140270174083617,0,0.4830476959131987,0,0.48546869048347174,0,,0,0.49810064646945645,0,0.4700084084944226,0,0.3198811980224089,0
2025-03-04 10:42:17.726,0.5206384010699393,0,0.5500514068872354,0,0.5389315985723393,0,0.5194703208144631,0,0.4947904431550064,0,0.4504557087096966,0,,0,0.3682096445285393,0,0.4793422606315574,0,0.32917337017292925,0
2025-03-04 10:42:17.795,0.5296706484624891,0,0.5365695175501319,0,0.5450121193027184,0,0.5318250607260513,0,0.5021325579398599,0,0.5009069529940952,0,,0,0.4994917473509444,0,0.504207749540637,0,0.33684950027974897,0
2025-03-04 10:42:17.863,0.5382265542347554,0,0.5754445896838799,0,0.5465221217262419,0,0.5562171641866002,0,0.5440247098126484,0,0.5247831322072021,0,,0,0.5187230701671921,0,0.5231676404235891,0,0.3411171111922292,0
2025-03-04 10:42:17.931,0.5333674183657078,0,0.5880676096909062,0,0.5556971185678944,0,0.5824601520890216,0,0.5605440241208668,0,0.5594937107846343,0,,0,0.5525051299100854,0,0.5384706415008509,0,0.34160832424626225,0
2025-03-04 10:42:18.001,0.5269925938893757,0,0.5904452711214544,0,0.570257822264031,0,0.5996652020442581,0,0.5831217519538139,0,0.5817844984128087,0,,0,0.5263371611268883,0,0.5389977201823012,0,0.3390332739228778,0
2025-03-04 10:42:18.069,0.4975538796481896,0,0.5751307016740255,0,0.5745262911260715,0,0.5909726671101183,0,0.5741574958996479,0,0.5581944461143127,0,,0,0.567686343533678,0,0.5174766782960272,0,0.3354921963707046,0
2025-03-04 10:42:18.138,0.481678538667224,0,0.5528232035409596,0,0.5621608628680453,0,0.5705263725003135,0,0.5590897876897377,0,0.5468611527967813,0,,0,0.5551352013489317,0,0.5045064876651515,0,0.33126665668628036,0
2025-03-04 10:42:18.209,0.47598838922330333,0,0.5234978718218872,0,0.5398835402088241,0,0.5454618358343079,0,0.5351175094865297,0,0.519720652123175,0,,0,0.5640665398284427,0,0.48884004667304665,0,0.33137429073479807,0
2025-03-04 10:42:18.276,0.4669792131482033,0,0.5190458377386097,0,0.5214065360406692,0,0.5255294793710007,0,0.5088875618535538,0,0.4921613925402902,0,,0,0.5836936473571274,0,0.48168304227423586,0,0.33711366189800956,0
2025-03-04 10:42:18.344,0.460393150841627,0,0.5263387680912444,0,0.5092578803810921,0,0.5136988991374452,0,0.5009363182703587,0,0.49408193718832305,0,,0,0.5166764072825127,0,0.4867010993720868,0,0.34515878463109795,0
2025-03-04 10:42:18.413,0.4583547478134305,0,0.5352992247033596,0,0.512468466437985,0,0.5262676970817509,0,0.527290933769786,0,0.5206072858457642,0,,0,0.5083381481204009,0,0.4991554022135629,0,0.35355875334054343,0
2025-03-04 10:42:18.481,0.47922837630806453,0,0.5585579080241292,0,0.5315917879200505,0,0.5527532735710917,0,0.48198463807901465,0,0.5429330994223551,0,,0,0.4946438382216865,0,0.5030240632760529,0,0.35968224078824035,0
2025-03-04 10:42:18.550,0.5080949709291328,0,0.5736880594988794,0,0.5502631576112778,0,0.581005591638876,0,0.5224985533156757,0,0.5683400362207567,0,,0,0.5021006825914694,0,0.5031220446214008,0,0.36185892220484994,0
2025-03-04 10:42:18.618,0.5180903139853628,0,0.5747674172333004,0,0.5605943405101654,0,0.5950620123078688,0,0.5445770596150111,0,0.58034211274163,0,,0,0.5247878664944253,0,0.4998705513910835,0,0.3600651942374337,0
2025-03-04 10:42:18.686,0.503409133519132,0,0.5580370944011789,0,0.558989944914816,0,0.590196971604915,0,0.5734329246885037,0,0.5813662850548652,0,,0,0.5444340149558768,0,0.4903541917883006,0,0.35589004055325246,0
2025-03-04 10:42:18.759,0.5686304856072724,0,0.5523083227511064,0,0.5536463677878486,0,0.5698684939422594,0,0.5715881138165635,0,0.5590901961901507,0,,0,0.5432382570807246,0,0.4900688395651605,0,0.3514268278233307,0
2025-03-04 10:42:18.824,0.487341389202237,0,0.5652644129598943,0,0.5501424745118383,0,0.5518090530643207,0,0.538709472832242,0,0.5212940991693004,0,,0,0.5039192760195558,0,0.4812731431065639,0,0.35082308588505773,0
2025-03-04 10:42:18.893,0.5004594007039189,0,0.5663106072213244,0,0.5430554485824157,0,0.5391929850937611,0,0.5092165391049048,0,0.49115712586779237,0,,0,0.47087523865260206,0,0.46646040751238194,0,0.35348996970109664,0
2025-03-04 10:42:18.962,0.5070963173826878,0,0.5534666966563525,0,0.5321502483326866,0,0.5312040162890692,0,0.49460624314711626,0,0.481824691176715,0,,0,0.46357160056156926,0,0.45660993374850956,0,0.3611692201543985,0
2025-03-04 10:42:19.031,0.4798158690546277,0,0.5422332111788053,0,0.5266266905119484,0,0.5249529519734321,0,0.5016268580113784,0,0.49795497444529757,0,,0,0.49751525993788964,0,0.47226691161255036,0,0.36869028542250115,0
2025-03-04 10:42:19.100,0.46930072931231565,0,0.551082671227696,0,0.5369069468138475,0,0.541847529226312,0,0.5375275106208205,0,0.5394815124852093,0,,0,0.5469346668030798,0,0.46512016736355427,0,0.37322924459523044,0
2025-03-04 10:42:19.169,0.47152043637698027,0,0.5348189554002747,0,0.5595978079888774,0,0.5571881757348233,0,0.5394187690006612,0,0.5752505980783302,0,,0,0.5744142005641768,0,0.49337160611692527,0,0.37126963552947156,0
2025-03-04 10:42:19.237,0.4765250474516032,0,0.587712736998868,0,0.5821414090812659,0,0.5942731501248184,0,0.5823364974288959,0,0.5804711086895871,0,,0,0.5650184335928919,0,0.5285215569874706,0,0.3623069661168834,0
2025-03-04 10:42:19.309,0.4743216568534281,0,0.591296719469855,0,0.5868696496655312,0,0.6142362343394182,0,0.5952308376907761,0,0.5652930137565432,0,,0,0.5399197353555791,0,0.542600964616126,0,0.34968010494777174,0
2025-03-04 10:42:19.374,0.489080985222356,0,0.5669885184892175,0,0.5679186815705645,0,0.5998452202759426,0,0.5820308949820653,0,0.5395245562686243,0,,0,0.5221368913970241,0,0.5131960622165986,0,0.3409271178875686,0
2025-03-04 10:42:19.442,0.49605477084118205,0,0.550493896304898,0,0.5506133329086057,0,0.5798980962554754,0,0.5573363204745115,0,0.5246038762291033,0,,0,0.5268346498960128,0,0.5006898230088853,0,0.3317133041480701,0
2025-03-04 10:42:19.510,0.49369800970286143,0,0.5853407700850705,0,0.5323908018677954,0,0.5583443140202732,0,0.533850923050946,0,0.5155581688932602,0,,0,0.5409842393582462,0,0.49775703466455823,0,0.3288972848664221,0
2025-03-04 10:42:19.579,0.4890370047742243,0,0.551064332791754,0,0.5188385444492734,0,0.5389848554485369,0,0.5077590275500404,0,0.5022564383553869,0,,0,0.5408944413806793,0,0.49885330518594007,0,0.3320616546465978,0
2025-03-04 10:42:19.659,0.481785727727532,0,0.5404287279717266,0,0.5074427487780659,0,0.5191512003206072,0,0.48598101864971854,0,0.4847189357986534,0,,0,0.5239565545190612,0,0.4993268562989606,0,0.33716335172429135,0
2025-03-04 10:42:19.716,0.4968363673561913,0,0.5217378930741097,0,0.5008971135079923,0,0.5147217453503009,0,0.4808216632858302,0,0.4793057835672407,0,,0,0.5024625519071829,0,0.49895138762317615,0,0.34968415881079146,0
2025-03-04 10:42:19.784,0.5182278311365428,0,0.5392441350317623,0,0.5157861175474856,0,0.5237700323529967,0,0.505633406067197,0,0.49227936166611863,0,,0,0.49895633101933523,0,0.5131890662260234,0,0.35437207000897714,0
2025-03-04 10:42:19.859,0.5353978709139301,0,0.5735500344640303,0,0.546686389155905,0,0.5569495867293749,0,0.547977809087536,0,0.5071501682699731,0,,0,0.46427689897146646,0,0.5433217189092441,0,0.3522032803343978,0
2025-03-04 10:42:19.921,0.5494468815877758,0,0.5081227188300581,0,0.5035049556636818,0,0.5678538990797215,0,0.5876427270841748,0,0.5595353960704725,0,,0,0.5477351890861148,0,0.5458565793909547,0,0.34862489825348775,0
2025-03-04 10:42:19.989,0.5311045994361101,0,0.6102384532671883,0,0.5870469858872744,0,0.6046211957736456,0,0.6107462964309639,0,0.5716181510615139,0,,0,0.5720808288845216,0,0.5391779699044699,0,0.3394171725802288,0
2025-03-04 10:42:20.059,0.5084668163913925,0,0.5876608222762196,0,0.5700559023852069,0,0.5955956052724222,0,0.6018457127840612,0,0.5690180195400433,0,,0,0.5836508636644485,0,0.5169693190020163,0,0.3315109319444557,0
2025-03-04 10:42:20.126,0.49023501837842387,0,0.565885607455672,0,0.5460404417420243,0,0.5743459831791388,0,0.5759412832665874,0,0.5558801966744538,0,,0,0.5821923883508697,0,0.4965174377327523,0,0.3283033003942014,0
2025-03-04 10:42:20.194,0.4598757285009146,0,0.5503166932946385,0,0.5310402193368341,0,0.554162991924612,0,0.5451209195569118,0,0.5379635056889199,0,,0,0.5731093281149714,0,0.47719103454501227,0,0.33046000412904314,0
2025-03-04 10:42:20.262,0.4610267444943764,0,0.5549281090584953,0,0.5243733056376434,0,0.5369836788284941,0,0.5315376293655579,0,0.5263465536707617,0,,0,0.5737975569844168,0,0.46176864092514525,0,0.34161544581651665,0
2025-03-04 10:42:20.331,0.46399923678907457,0,0.5434998640577227,0,0.5099948967313194,0,0.5225829961960251,0,0.5115615190968895,0,0.5118162899556387,0,,0,0.5648716772490693,0,0.4449941968362943,0,0.3506505414521018,0
2025-03-04 10:42:20.400,0.4811214744663855,0,0.532864327391693,0,0.5037278176498434,0,0.5116228975747875,0,0.5006881713684742,0,0.5038125292681903,0,,0,0.5644322947148707,0,0.4478299350499257,0,0.3604576047530777,0
2025-03-04 10:42:20.469,0.49268234133885136,0,0.5323626036774601,0,0.5175207563529941,0,0.5216704070802923,0,0.5087884385408581,0,0.5177344351245339,0,,0,0.5746130908822096,0,0.4860174655522831,0,0.3622616841718404,0
2025-03-04 10:42:20.538,0.49511569682850387,0,0.5620061920964838,0,0.5425449473038294,0,0.5451923484066906,0,0.5389724101339177,0,0.5437594215300372,0,,0,0.5659986990474433,0,0.5406238449226631,0,0.3533690352427627,0
2025-03-04 10:42:20.609,0.5147448037038854,0,0.6015522502847467,0,0.5769642169933171,0,0.5740821018641662,0,0.5087641767858581,0,0.5553424349103301,0,,0,0.5632630231684466,0,0.5685983226467188,0,0.3373177860681176,0
2025-03-04 10:42:20.675,0.5214705351021106,0,0.6287464878352386,0,0.5980476080894144,0,0.6091258585392955,0,0.6059219366813849,0,0.5840954214166423,0,,0,0.5435846053033431,0,0.5668556559496265,0,0.32287462123156196,0
2025-03-04 10:42:20.744,0.5248258034116494,0,0.6290751926227514,0,0.6017719005272646,0,0.611205684777025,0,0.6105161802475423,0,0.5717495779585198,0,,0,0.5311447677958505,0,0.5335207950162472,0,0.3163887355206759,0
2025-03-04 10:42:20.812,0.5141909746911292,0,0.5965087814617254,0,0.5911286530808698,0,0.5956805987200454,0,0.5867636899975484,0,0.5485619543535966,0,,0,0.5187639653469768,0,0.508214657049908,0,0.3206805461995153,0
2025-03-04 10:42:20.881,0.49968446614236145,0,0.5590920004698723,0,0.5678604430757017,0,0.5722048984981039,0,0.5607663907489712,0,0.5262164869904832,0,,0,0.5166357911613838,0,0.49491652635010824,0,0.33132221437179576,0
2025-03-04 10:42:20.951,0.4851663422269448,0,0.5205401254834416,0,0.5510243076492766,0,0.5553515216138495,0,0.540044021362763,0,0.5107977329347494,0,,0,0.5219183290452245,0,0.48709875120474844,0,0.34311136676033777,0
2025-03-04 10:42:21.019,0.47083108291995984,0,0.4935562777073772,0,0.5311642342737879,0,0.5358370044700137,0,0.5116054846471944,0,0.4873958260601891,0,,0,0.4894784534195398,0,0.4749579922988231,0,0.35461416510282606,0
2025-03-04 10:42:21.088,0.46318248633753684,0,0.4919365702773866,0,0.5058299120452209,0,0.5234192999001006,0,0.49727595889289933,0,0.47796028413073127,0,,0,0.48298827481207574,0,0.49066988625326163,0,0.36429917784140325,0
2025-03-04 10:42:21.158,0.4590575674472247,0,0.5251817197979408,0,0.5317292807706859,0,0.5279459486018332,0,0.49999885954321205,0,0.4858709986414496,0,,0,0.5276750941678899,0,0.5337434204931581,0,0.36994268592783003,0
2025-03-04 10:42:21.225,0.47528175257719346,0,0.5824457563866716,0,0.5599069115880985,0,0.5579739748431977,0,0.533192333441986,0,0.5157550449689154,0,,0,0.5447690667163515,0,0.5580324883731308,0,0.36853898247216627,0
2025-03-04 10:42:21.294,0.4793896706390581,0,0.6381252615698818,0,0.5875859006887859,0,0.5630422866793675,0,0.5650124044656999,0,0.5390712547590799,0,,0,0.5599332661772847,0,0.5856552947441965,0,0.3598817260439087,0
2025-03-04 10:42:21.362,0.5049775092823557,0,0.6532647167011889,0,0.6128044229450614,0,0.6002036437127145,0,0.5911249768511966,0,0.556863761105663,0,,0,0.5643296405733346,0,0.6023525179907587,0,0.34631956427307004,0
2025-03-04 10:42:21.430,0.5075105956047797,0,0.6611390363636623,0,0.6265318855652809,0,0.6318080322263147,0,0.5927813244735775,0,0.558894882524157,0,,0,0.5566690798747119,0,0.5885433900407837,0,0.3341193231672588,0
2025-03-04 10:42:21.513,0.5022057784351945,0,0.6523933933663121,0,0.6081732824253729,0,0.6213851133229031,0,0.5786248692273273,0,0.5443677222357467,0,,0,0.5455714527529762,0,0.5648993056254109,0,0.32521785202986125,0
2025-03-04 10:42:21.569,0.5015858831086054,0,0.6304331512318692,0,0.5940105172073995,0,0.5961868234603743,0,0.5506706431339433,0,0.5202459114225939,0,,0,0.5357605906373756,0,0.5143083891320995,0,0.3306305224537996,0
2025-03-04 10:42:21.637,0.497003797594505,0,0.6070637848755295,0,0.5901580821536272,0,0.572744742487848,0,0.527780885273461,0,0.5071259222173061,0,,0,0.5357136638445801,0,0.5047894790268866,0,0.3381597364015861,0
2025-03-04 10:42:21.709,0.4888300543607494,0,0.5728544036775892,0,0.5858451894154431,0,0.5552827921288699,0,0.5066239644306871,0,0.4930382924233638,0,,0,0.5213568705822706,0,0.5109170910473511,0,0.34738264194292046,0
2025-03-04 10:42:21.775,0.4739263414164207,0,0.5725891698984032,0,0.5733373859212725,0,0.5344042728118015,0,0.4950354927450929,0,0.48868670339708403,0,,0,0.5291722874331213,0,0.5330837784123438,0,0.3560543228409867,0
2025-03-04 10:42:21.844,0.47433340949247255,0,0.5934986771097972,0,0.557048770258818,0,0.5276142826564286,0,0.5019971858034056,0,0.49536608791185444,0,,0,0.5479142328246585,0,0.5613532451404116,0,0.35931247803840605,0
2025-03-04 10:42:21.912,0.49384469632062944,0,0.43522820932988254,0,0.538935876559756,0,0.5480135001770016,0,0.525595916893211,0,0.5204378071454246,0,,0,0.5780534425977991,0,0.5578178069944554,0,0.3552315754773895,0
2025-03-04 10:42:21.980,0.49012714316053735,0,0.4753573494528574,0,0.5721418683595962,0,0.57226162159182,0,0.5515409668932482,0,0.5425200432296425,0,,0,0.5950993789664079,0,0.6010789197697656,0,0.3436943544162537,0
2025-03-04 10:42:22.073,0.5091846431479261,0,0.5054506911609367,0,0.6103494718082678,0,0.5651530176526637,0,0.5822567205078669,0,0.5702283730325711,0,,0,0.6174390005262544,0,0.6164473297067496,0,0.32304834229531404,0
2025-03-04 10:42:22.159,0.5043844180782203,0,0.5754749542671884,0,0.6481056107903378,0,0.5722897091249148,0,0.5997162120996268,0,0.5783188574040667,0,,0,0.6165500744700105,0,0.6027398721191706,0,0.3057923611645567,0
2025-03-04 10:42:22.209,0.48898599846373464,0,0.5264017220710628,0,0.6422763263118212,0,0.5892126862433454,0,0.5768587401710852,0,0.5536600511245036,0,,0,0.5864519965695326,0,0.5793417819059674,0,0.30219530990349514,0
2025-03-04 10:42:22.258,0.4812828298238371,0,0.5843615376376864,0,0.6164767474815036,0,0.5797169360498425,0,0.5402376467471977,0,0.5272668627888004,0,,0,0.5803966770752448,0,0.5699809400304249,0,0.3148538084330779,0
2025-03-04 10:42:22.323,0.49067409432592535,0,0.5722001968938712,0,0.5915074308734434,0,0.5616103922629329,0,0.5126037397252206,0,0.5033995505564367,0,,0,0.546871860997137,0,0.5560079426152775,0,0.3299625272348626,0
2025-03-04 10:42:22.391,0.4855560113701697,0,0.5182252011223575,0,0.564337839337052,0,0.5450556466253085,0,0.4962586061999489,0,0.49362354205859443,0,,0,0.5602037162972119,0,0.5493644991346854,0,0.3446191548873236,0
2025-03-04 10:42:22.460,0.482214559510536,0,0.5832334418312694,0,0.5497570916064873,0,0.5291136006217109,0,0.4909136042494551,0,0.490237458105238,0,,0,0.5707190463237827,0,0.5521383989076717,0,0.358383319831551,0
2025-03-04 10:42:22.528,0.4715577867228571,0,0.5431362314185895,0,0.5507157853117517,0,0.5271768321720509,0,0.5092027209792341,0,0.511572899278242,0,,0,0.6089895559590567,0,0.5522071312321855,0,0.3676495106454408,0
2025-03-04 10:42:22.597,0.4711460948750538,0,0.5324350879258389,0,0.5685663592742143,0,0.5440556039583824,0,0.5090457063518876,0,0.5063085584556462,0,,0,0.48021548454082047,0,0.5340343406559516,0,0.37098106037497713,0
2025-03-04 10:42:22.667,0.484353678035379,0,0.5608934082895934,0,0.5926364024175425,0,0.5688744431836563,0,0.5359209987817949,0,0.5489163507982925,0,,0,0.6154196397714455,0,0.5866736763291598,0,0.3692553842387117,0
2025-03-04 10:42:22.736,0.5071483168415701,0,0.5691200222303467,0,0.6078808291890533,0,0.5863913488119576,0,0.5519007549884126,0,0.5549137355577817,0,,0,0.6092754171366176,0,0.5691327535573224,0,0.36418062518407446,0
2025-03-04 10:42:22.809,0.5094998517049638,0,0.5889190955023819,0,0.6236809726852254,0,0.6044949609510376,0,0.5730969024215746,0,0.5564132418552474,0,,0,0.5945190106355891,0,0.6115827198509227,0,0.3524451488516006,0
2025-03-04 10:42:22.873,0.5071763473860738,0,0.6031460280618002,0,0.6249208089421027,0,0.6004144091725273,0,0.561233815075745,0,0.5440799535549,0,,0,0.5730487196263732,0,0.6024936614118468,0,0.34357794135899755,0
2025-03-04 10:42:22.942,0.49307075062431976,0,0.586299168915236,0,0.6061174538467127,0,0.5782439985601574,0,0.5425708184228332,0,0.5281081898937621,0,,0,0.5773536455788857,0,0.5984979607343481,0,0.34250495715757273,0
2025-03-04 10:42:23.010,0.48013655645230674,0,0.5968800143329577,0,0.5928019949206094,0,0.5618112110037208,0,0.5257019998315065,0,0.5139959631081189,0,,0,0.57401483417649,0,0.580187650184665,0,0.34810925589691377,0
2025-03-04 10:42:23.079,0.47024387870710693,0,0.5523922356758011,0,0.5790098033209361,0,0.5459239844699542,0,0.5118938824422341,0,0.49997299836052544,0,,0,0.5249943719681728,0,0.5265590967239655,0,0.3567617279164483,0
2025-03-04 10:42:23.147,0.43683775032762945,0,0.4390788769315402,0,0.5135612128742608,0,0.48062785213346954,0,0.5000290736863623,0,0.4773670313432098,0,,0,0.49504093587823805,0,0.4702279280997218,0,0.3650888044534365,0
2025-03-04 10:42:23.215,0.3490701338799821,0,0.36314434992961625,0,0.3416665711222905,0,0.417421947991887,0,0.4491351129702076,0,0.4080633979238921,0,,0,0.46848829198705866,0,0.3838308589035401,0,0.3682107516312139,0
2025-03-04 10:42:23.284,0.35386504271714714,0,0.3911303261092661,0,0.3791820073779517,0,0.32343307511374403,0,0.3831371441712467,0,0.3784055861282365,0,,0,0.41399185888597156,0,0.417767713583378,0,0.36457170838624975,0
2025-03-04 10:42:23.359,0.3911092710714962,0,0.4481748431610874,0,0.4272976371847218,0,0.3758833167189738,0,0.38038968374501453,0,0.4049136377243341,0,,0,0.3993977844500722,0,0.45627906852885636,0,0.3544323456308575,0
