Timestamp,415nm_filtered,415nm_peak,445nm_filtered,445nm_peak,480nm_filtered,480nm_peak,515nm_filtered,515nm_peak,555nm_filtered,555nm_peak,590nm_filtered,590nm_peak,630nm_filtered,630nm_peak,680nm_filtered,680nm_peak,NIR_filtered,NIR_peak,Fused_filtered,Fused_peak
2025-03-04 10:42:30.263,,0,,0,,0,,0,,0,,0,,0,,0,,0,,0
2025-03-04 10:42:30.403,,0,,0,,0,,0,,0,,0,,0,,0,,0,,0
2025-03-04 10:42:30.454,,0,,0,,0,,0,,0,,0,,0,,0,,0,,0
2025-03-04 10:42:30.504,,0,,0,,0,,0,,0,,0,,0,,0,,0,,0
2025-03-04 10:42:30.554,,0,,0,,0,,0,,0,,0,,0,,0,,0,,0
2025-03-04 10:42:30.604,,0,,0,,0,,0,,0,,0,,0,,0,,0,,0
2025-03-04 10:42:30.654,,0,,0,,0,,0,,0,,0,,0,,0,,0,,0
2025-03-04 10:42:30.704,,0,,0,,0,,0,,0,,0,,0,,0,,0,,0
2025-03-04 10:42:30.754,,0,,0,,0,,0,,0,,0,,0,,0,,0,,0
2025-03-04 10:42:30.804,,0,,0,,0,,0,,0,,0,,0,,0,,0,,0
2025-03-04 10:42:30.854,,0,,0,,0,,0,,0,,0,,0,,0,,0,,0
2025-03-04 10:42:30.905,,0,,0,,0,,0,,0,,0,,0,,0,,0,,0
2025-03-04 10:42:33.017,0.6083362812523985,0,0.6359820383538013,0,0.3949440689027016,0,0.43268534097370076,0,0.51211697122808,0,0.5344010256096288,0,,0,0.6158111395558614,0,0.46396339000057546,0,0.3728247240103153,0
2025-03-04 10:42:33.086,0.5682240179014991,0,0.6678803854767971,0,0.4659009169924114,0,0.4474685738873723,0,0.5061842893194541,0,0.4860021046834455,0,,0,0.624339472282879,0,0.39694949474229657,0,0.3535477304413086,0
2025-03-04 10:42:33.155,0.6134942217902951,0,0.7100521092933375,0,0.48060599920163516,0,0.45671506914629934,0,0.5282014576771104,0,0.5276703694441197,0,,0,0.6584220119267633,0,0.5092845168204284,0,0.3367592881576594,0
2025-03-04 10:42:33.223,0.6646826401669522,0,0.7288839980402206,0,0.5281386340716131,0,0.49365558360558365,0,0.5231376013911768,0,0.5319147760945054,0,,0,0.6843234475532637,0,0.5296787411837581,0,0.32719799709682423,0
2025-03-04 10:42:33.291,0.6741352418703757,0,0.7007617787656053,0,0.5301389424609037,0,0.49428284929520927,0,0.5528678884950574,0,0.5210974266429913,0,,0,0.6923718573320203,0,0.5263587518362987,0,0.33978150399872226,0
2025-03-04 10:42:33.361,0.6406061955379164,0,0.6583460743015213,0,0.5364356967818055,0,0.5017801218627159,0,0.5652393937979214,0,0.5558807766198649,0,,0,0.6845601641560006,0,0.5224300365007569,0,0.38966908491953633,0
2025-03-04 10:42:33.430,0.5846856087446658,0,0.6568488893472635,0,0.48993441300116036,0,0.5284696064371379,0,0.5831670148480821,0,0.5692294522301891,0,,0,0.620017100629782,0,0.46600007754763706,0,0.47225177853506545,0
2025-03-04 10:42:33.498,0.5795137794202319,0,0.648748868175825,0,0.45994546056362917,0,0.48817921625881944,0,0.5379084561893253,0,0.5058728983852272,0,,0,0.5394350389303199,0,0.4526718061859688,0,0.5475063481604828,0
2025-03-04 10:42:33.567,0.5915386976565923,0,0.6303137503682671,0,0.44158517645160483,0,0.4992229411063899,0,0.49652575312090386,0,0.4819168751169399,0,,0,0.5105669597675204,0,0.4291416625903667,0,0.5701670813929779,0
2025-03-04 10:42:33.636,0.5819493619860469,0,0.6174648709800783,0,0.5059859383524862,0,0.5101917352264714,0,0.4870142798913544,0,0.4631109902126656,0,,0,0.5510617264511465,0,0.39387603799703225,0,0.5390075141013762,0
2025-03-04 10:42:33.704,0.6317398421453013,0,0.6358817055468765,0,0.4860621883384102,0,0.4930367206275182,0,0.5375528617649818,0,0.5230452360768023,0,,0,0.5789688234006354,0,0.44892796076698904,0,0.49374608349432375,0
2025-03-04 10:42:33.773,0.6524865142919234,0,0.6184002472102474,0,0.5206884219494997,0,0.49600063657100835,0,0.5847868369654732,0,0.56397853689997,0,,0,0.5855027263417163,0,0.46609343449662405,0,0.46796370725200714,0
2025-03-04 10:42:33.841,0.6231457771155756,0,0.5387782917856254,0,0.45205913546812426,0,0.3972368834442453,0,0.505261281643571,0,0.525943496235123,0,,0,0.6151022407315078,0,0.5465041101656721,0,0.4592620987486197,0
2025-03-04 10:42:33.910,0.6611947090366997,0,0.5766703496610133,0,0.49957319181431753,0,0.48306165656799693,0,0.5492101028857844,0,0.5292949507722863,0,,0,0.6398846285594483,0,0.5457567664218912,0,0.45467599179120355,0
2025-03-04 10:42:33.979,0.6672715116713229,0,0.613459188411111,0,0.5072247227117034,0,0.48823948865033506,0,0.5692133503356751,0,0.5639510235807181,0,,0,0.627049869818239,0,0.5187006385084407,0,0.45030835748660325,0
2025-03-04 10:42:34.047,0.6812560767260014,0,0.6096264501637779,0,0.518959185352147,0,0.5081913586470193,0,0.6296052572677597,0,0.5976758928893351,0,,0,0.6041483042118933,0,0.4846130318517734,0,0.4458701564735255,0
2025-03-04 10:42:34.115,0.6676025228544137,0,0.6694392337475544,0,0.5114291621626766,0,0.5382852990876634,0,0.5804563485196509,0,0.5513840429584025,0,,0,0.5952204632039111,0,0.4606395073789465,0,0.441319920879253,0
2025-03-04 10:42:34.184,0.7127734442659436,0,0.6447886403337604,0,0.5012762068322986,0,0.5155119245977917,0,0.5361199486632163,0,0.5134283159033968,0,,0,0.5880128484469188,0,0.44047919279903686,0,0.43696267627631147,0
2025-03-04 10:42:34.252,0.703130594398178,0,0.6850549304334588,0,0.49399892643960375,0,0.5488153406830243,0,0.5214896564442763,0,0.5147015721797045,0,,0,0.5779559687324607,0,0.44684624150160673,0,0.4329471985064199,0
2025-03-04 10:42:34.321,0.6754074815382306,0,0.6870778989051499,0,0.5268942263752094,0,0.5229397537164114,0,0.5070022231823463,0,0.4907367649276943,0,,0,0.5989164063205922,0,0.4583214794161973,0,0.42907526781395644,0
2025-03-04 10:42:34.389,0.6459594578251697,0,0.6862057333880037,0,0.5202353327449624,0,0.5150578808792482,0,0.5076814737680797,0,0.5065061565583182,0,,0,0.6292126135866173,0,0.4838952161218332,0,0.42543378423256256,0
2025-03-04 10:42:34.457,0.6520203883121038,0,0.6817275212671137,0,0.5027009790511532,0,0.49698415737185936,0,0.4793259933362338,0,0.4354269144146849,0,,0,0.6081587817574694,0,0.43310543295016257,0,0.42206948838183433,0
2025-03-04 10:42:34.526,0.6927649262238508,0,0.6960787880058056,0,0.47127726075910475,0,0.49828320651380176,0,0.4804343921781111,0,0.45470881354863457,0,,0,0.6136803897793806,0,0.45775288849163875,0,0.4191197182556129,0
2025-03-04 10:42:34.595,0.5555207928979508,0,0.7118460131164865,0,0.5272961115643036,0,0.461639390120395,0,0.47872893370939984,0,0.45196659774976194,0,,0,0.563707185597992,0,0.42284557606442574,0,0.4163429204658972,0
2025-03-04 10:42:34.663,0.7332054210123249,0,0.7199175276948289,0,0.5364223595051545,0,0.48427414964919685,0,0.5086829008075485,0,0.49008409003937053,0,,0,0.6631655036441876,0,0.49651871697115635,0,0.41406228789370614,0
2025-03-04 10:42:34.732,0.7178357594939538,0,0.7149951048585106,0,0.5170753981087834,0,0.47646365494917514,0,0.5402117626263387,0,0.5207161908119322,0,,0,0.6851406986632139,0,0.49394288046842694,0,0.41219642384304045,0
2025-03-04 10:42:34.800,0.6988430232233594,0,0.718078622517679,0,0.5496695156180355,0,0.5402623868534443,0,0.5572837983968093,0,0.553639033718486,0,,0,0.6775077096428678,0,0.5228147662278232,0,0.4107448326223808,0
2025-03-04 10:42:34.869,0.6842279048799322,0,0.7233703930118514,0,0.5262541831103094,0,0.553349977195027,0,0.5745126275508761,0,0.6057110218741787,0,,0,0.6565513150484714,0,0.5361258142515541,0,0.40970009030368243,0
2025-03-04 10:42:34.938,0.6671520177582924,0,0.7123626496165272,0,0.500356743957612,0,0.5322182944922977,0,0.5499224477467456,0,0.5661041932683307,0,,0,0.6357094456142995,0,0.5072594956249862,0,0.4090308712866139,0
2025-03-04 10:42:35.007,0.6524376011256635,0,0.6442680186257783,0,0.5228688884411002,0,0.5622486633278392,0,0.5734522265497557,0,0.5759551117162609,0,,0,0.6211436682190308,0,0.5420658401826691,0,0.4087409423346055,0
2025-03-04 10:42:35.075,0.6525200344848975,0,0.6019837725998627,0,0.5074703392628713,0,0.5541984460566401,0,0.5925895436444619,0,0.5855903513847559,0,,0,0.6270977409065679,0,0.5764725255881489,0,0.4087785522308123,0
2025-03-04 10:42:35.144,0.6678248344469478,0,0.5772323016549953,0,0.5181918885800817,0,0.5691547884289822,0,0.5956475499165335,0,0.5858104528424367,0,,0,0.64145686379579,0,0.541153517207959,0,0.40910112019760203,0
2025-03-04 10:42:35.212,0.6894699645120373,0,0.629892938317435,0,0.525952783409359,0,0.5803840653684735,0,0.5397288739830279,0,0.5667277841310938,0,,0,0.6447506781791162,0,0.4824719365911287,0,0.4096466309244924,0
2025-03-04 10:42:35.281,0.602971343840379,0,0.5544063042719115,0,0.5392400518794381,0,0.5691452190370612,0,0.5451135352619093,0,0.5502309611922007,0,,0,0.6386256217876269,0,0.48589708793035835,0,0.41047571392533067,0
2025-03-04 10:42:35.349,0.7210712909168705,0,0.5952896074134296,0,0.5854395202755052,0,0.5472719667359905,0,0.5214953906834293,0,0.5584996993385735,0,,0,0.6313746390825861,0,0.5171527017175116,0,0.411529950593645,0
2025-03-04 10:42:35.417,0.7129420278792806,0,0.6014779973492527,0,0.589420721989669,0,0.5459006121135549,0,0.534319677596807,0,0.5889176149684903,0,,0,0.6307923978827451,0,0.5205542210717028,0,0.41279606271446434,0
2025-03-04 10:42:35.487,0.6974432596760413,0,0.684279224590266,0,0.5692021130527509,0,0.5736244936648293,0,0.5212967091110448,0,0.5506605444040535,0,,0,0.6089256861240702,0,0.4905754095801778,0,0.41429385428897647,0
2025-03-04 10:42:35.555,0.6756318646370405,0,0.6837559646664954,0,0.5508326676448198,0,0.5486653204809512,0,0.5429327804934495,0,0.5158422677828868,0,,0,0.616098185669508,0,0.47046230689106555,0,0.41580468775901147,0
2025-03-04 10:42:35.624,0.6617027921858177,0,0.6548116423545266,0,0.5154492096070713,0,0.5159734091457513,0,0.5060192306092056,0,0.48541798641197154,0,,0,0.6086632804620753,0,0.4382178829148056,0,0.4174665252870958,0
2025-03-04 10:42:35.693,0.6525873715844405,0,0.6147380573715411,0,0.5028392391173226,0,0.4642974774896549,0,0.4775711614328875,0,0.4674119594027164,0,,0,0.6113689931477482,0,0.4827577279876952,0,0.41918395885259374,0
2025-03-04 10:42:35.762,0.6461208951068437,0,0.6510737467882969,0,0.4757447778584898,0,0.4636592879170039,0,0.49046166986913825,0,0.45063632773374857,0,,0,0.6251037652067605,0,0.4795379209609446,0,0.42096958931245987,0
2025-03-04 10:42:35.830,0.6479404642916131,0,0.6419533869977292,0,0.49169988382323065,0,0.4714969471100915,0,0.5057618184664975,0,0.501195920952005,0,,0,0.6492974845352179,0,0.497310068392375,0,0.42264802029984627,0
2025-03-04 10:42:35.900,0.6584797096871082,0,0.6682022486813921,0,0.5270108995349764,0,0.5017879322386378,0,0.5970445938347243,0,0.6011604571168125,0,,0,0.5970634670935341,0,0.42901664841182874,0,0.4243215529978041,0
2025-03-04 10:42:35.969,0.6764331209215052,0,0.6820561172769886,0,0.49068744693160615,0,0.5015875004963464,0,0.5278660168647324,0,0.5094340965104729,0,,0,0.5654735503654887,0,0.4021711332535208,0,0.4258803253574306,0
2025-03-04 10:42:36.037,0.6917541303515848,0,0.5918019150345728,0,0.45790114700012335,0,0.467944484996381,0,0.5662642479326128,0,0.57001652097383,0,,0,0.6949000192087385,0,0.4773277616315215,0,0.4272802113520743,0
2025-03-04 10:42:36.106,0.6964741250881384,0,0.6308422020578537,0,0.4345510658554124,0,0.5049986200065228,0,0.5973764964496553,0,0.6270531219075999,0,,0,0.7393660903037046,0,0.47669256955853484,0,0.4285427469683737,0
2025-03-04 10:42:36.175,0.6935840387456188,0,0.6343938169904667,0,0.46574724136737744,0,0.5194945292583374,0,0.5645558932816187,0,0.5713813224414237,0,,0,0.6329674603291462,0,0.4320503790172176,0,0.42978997040247535,0
2025-03-04 10:42:36.243,0.6899574273339827,0,0.7063540111842703,0,0.4673690657066161,0,0.516592338193209,0,0.5803648737395877,0,0.5328825696669248,0,,0,0.5921615560932882,0,0.4837239823453504,0,0.4308714112392851,0
2025-03-04 10:42:36.312,0.6821998985790328,0,0.6880525037053211,0,0.5410264048110354,0,0.5151765348234726,0,0.515436285303098,0,0.46975262867965345,0,,0,0.6049837558181699,0,0.5056168781558743,0,0.43185282444606043,0
2025-03-04 10:42:36.380,0.6846738757636216,0,0.6181718498708121,0,0.5103501847698738,0,0.5031541208404632,0,0.4882687949548382,0,0.464287392939903,0,,0,0.5826332396876349,0,0.5112334391325999,0,0.43269179627902404,0
2025-03-04 10:42:36.449,0.6698138949107529,0,0.5812692767183517,0,0.5464786814208829,0,0.5112301557583834,0,0.4693921544618405,0,0.46192915584062333,0,,0,0.593757049039275,0,0.519992936910919,0,0.4333615857694129,0
2025-03-04 10:42:36.518,0.6456966309913307,0,0.5408240492356571,0,0.5666501517792654,0,0.5244856651587204,0,0.46022307149647934,0,0.460175791735612,0,,0,0.5863412457986136,0,0.5393609923206787,0,0.4338959492240452,0
2025-03-04 10:42:36.586,0.6479538819107131,0,0.5983236895310612,0,0.5219011475510476,0,0.523517633474518,0,0.5224429062322354,0,0.50973723112444,0,,0,0.5882531075444214,0,0.48103578472418346,0,0.43427069271606455,0
2025-03-04 10:42:36.655,0.669455445070649,0,0.643959782448393,0,0.4874884499213599,0,0.5030425433056344,0,0.5599908982743741,0,0.5606057312645522,0,,0,0.5920026904453272,0,0.4364388537457238,0,0.4344612755167605,0
2025-03-04 10:42:36.723,0.6937706944583664,0,0.6945034038854745,0,0.5090950923038662,0,0.5374414991059455,0,0.5670520845893267,0,0.5779043229921625,0,,0,0.5977649851396434,0,0.5162953376514383,0,0.4345115211134749,0
2025-03-04 10:42:36.791,0.6740937368615287,0,0.6579172440179331,0,0.5331387335809267,0,0.5440069535736175,0,0.6001218005420267,0,0.608066354074046,0,,0,0.6128789466274934,0,0.5466277406243663,0,0.43450646310772617,0
2025-03-04 10:42:36.860,0.6909648940349103,0,0.671089190358234,0,0.5411845973000577,0,0.5678281395082667,0,0.6078893516211274,0,0.5949023945721957,0,,0,0.6300524802077166,0,0.5337263411448595,0,0.43435566858234836,0
2025-03-04 10:42:36.928,0.6708138032415979,0,0.6693674363050145,0,0.5180541216652297,0,0.5407383731354286,0,0.6056000918960541,0,0.5700671063490493,0,,0,0.6408988073114791,0,0.5104636186065695,0,0.4341181324985632,0
2025-03-04 10:42:36.996,0.6680773066073394,0,0.6270464148578136,0,0.4797303293836054,0,0.5084021648364998,0,0.5734950850850039,0,0.5440174677380412,0,,0,0.6468674455905894,0,0.4606745543588961,0,0.4337962704669309,0
2025-03-04 10:42:37.065,0.6780011596079383,0,0.6159154680143837,0,0.4390360190728774,0,0.47140124654004717,0,0.5319254103541625,0,0.5155832037145116,0,,0,0.6439627831715232,0,0.4168640217631011,0,0.43350541769287426,0
2025-03-04 10:42:37.134,0.6846917679726243,0,0.6176388594311857,0,0.41277039443383934,0,0.4323023273463779,0,0.48455363940555346,0,0.49065415871696016,0,,0,0.6513031317263805,0,0.40017796023519764,0,0.43294983014357136,0
2025-03-04 10:42:37.202,0.6712842963149642,0,0.6013502253611827,0,0.41208890717916863,0,0.4124784378436636,0,0.4752360932453692,0,0.48383186200010864,0,,0,0.654337095902206,0,0.38209302794974703,0,0.4324452690605314,0
2025-03-04 10:42:37.271,0.6699591819187667,0,0.6125231586752934,0,0.38885652221935857,0,0.40424022393340964,0,0.5009951598619206,0,0.5029997420179497,0,,0,0.696460183971046,0,0.4338730658492785,0,0.4318519703834802,0
2025-03-04 10:42:37.339,0.6773972625200831,0,0.6524001262508482,0,0.4440843711703568,0,0.45372496504294163,0,0.5516023364595247,0,0.5399661440194188,0,,0,0.7367817787617997,0,0.5095384081786585,0,0.43117752536492004,0
2025-03-04 10:42:37.407,0.6872171978773656,0,0.6705706237750448,0,0.4728943212081875,0,0.5215344915863834,0,0.5875407867736334,0,0.5748931226409333,0,,0,0.7387076439784727,0,0.5774454030597564,0,0.43050253740027283,0
2025-03-04 10:42:37.476,0.6792769673912891,0,0.7152837572841398,0,0.5833308008496118,0,0.6074167035305741,0,0.6159357667709807,0,0.588790226587867,0,,0,0.7106813408476144,0,0.5996210698360939,0,0.42983337906477204,0
2025-03-04 10:42:37.544,0.673172974345759,0,0.7272663828716648,0,0.6236352923121459,0,0.6239376298860532,0,0.6154529591215613,0,0.5773417351880649,0,,0,0.6669402011783442,0,0.5822793040237845,0,0.4292208985414109,0
2025-03-04 10:42:37.613,0.6653617960447382,0,0.7114285549988058,0,0.547009002697337,0,0.578915066954364,0,0.6003406945014489,0,0.5567392672920568,0,,0,0.6480537895369445,0,0.5563715327285951,0,0.4286118473880507,0
2025-03-04 10:42:37.682,0.5276354205719724,0,0.6780987405258122,0,0.5453487182532487,0,0.5710469562187412,0,0.5799367920324983,0,0.5414575718196046,0,,0,0.6257629266175143,0,0.47724231588163724,0,0.42814323288596173,0
2025-03-04 10:42:37.750,0.6660878978598537,0,0.638323717349261,0,0.49998490911337945,0,0.5069316013654339,0,0.5588414659232274,0,0.5257767875118967,0,,0,0.6248545042057282,0,0.4339140715851448,0,0.42781983335364415,0
2025-03-04 10:42:37.818,0.668518307958462,0,0.6139088579681933,0,0.4553918846421504,0,0.4788409699802312,0,0.5330788151898378,0,0.512204781721796,0,,0,0.6049051564829181,0,0.3992999186488217,0,0.4273975309589456,0
2025-03-04 10:42:37.887,0.6710910793845258,0,0.6081479722736561,0,0.4597396617491605,0,0.46080021218636424,0,0.5235083393866473,0,0.5038771160296015,0,,0,0.6020943082883179,0,0.3956954771885442,0,0.426992909650885,0
2025-03-04 10:42:37.955,0.6675717664370766,0,0.6180743980759222,0,0.4453837448700071,0,0.4530403570304057,0,0.5419881071012005,0,0.5113947061349533,0,,0,0.5931544837613774,0,0.441324486705794,0,0.42662295119964616,0
2025-03-04 10:42:38.024,0.620175813811687,0,0.6369020727807041,0,0.4986331157035555,0,0.5050273706442782,0,0.5681082851260628,0,0.534710446409084,0,,0,0.6025584270001118,0,0.4512232123569876,0,0.42627224546798664,0
2025-03-04 10:42:38.092,0.6604889761278816,0,0.6557570423165637,0,0.5567755449711564,0,0.48331181771101434,0,0.5261154408527433,0,0.5460417365313626,0,,0,0.6090253285797363,0,0.49858578476585225,0,0.42594518520184543,0
2025-03-04 10:42:38.162,0.6776755774000035,0,0.6636019128241971,0,0.5925735650458896,0,0.5751799261297473,0,0.5626836710659798,0,0.5466497361255777,0,,0,0.6150316368730777,0,0.44763926812803867,0,0.42555951387759905,0
2025-03-04 10:42:38.231,0.7024907570979111,0,0.6733066547407118,0,0.600737323495798,0,0.5995108731009445,0,0.5668727252138334,0,0.571514082185824,0,,0,0.5966083090600154,0,0.48324760195866945,0,0.4254037312700059,0
2025-03-04 10:42:38.300,0.7205745869135087,0,0.6690207084670436,0,0.575850361098424,0,0.5845178832614548,0,0.579010932561487,0,0.5718517349685356,0,,0,0.5873785840275606,0,0.49110885795394016,0,0.4252148082346438,0
2025-03-04 10:42:38.368,0.7229775772922004,0,0.6653613910520305,0,0.5336114541893991,0,0.544669347448245,0,0.5849860770703895,0,0.5493136071362783,0,,0,0.574408005580841,0,0.47195013343332004,0,0.4251450337509674,0
2025-03-04 10:42:38.438,0.7120524374137487,0,0.6452530355885361,0,0.4861392210596702,0,0.5013990516853054,0,0.5598255056484428,0,0.5292510954466648,0,,0,0.5746141646499735,0,0.47940929321073006,0,0.4251037489331428,0
2025-03-04 10:42:38.506,0.6926158953108308,0,0.6205991451500716,0,0.4514033672955791,0,0.4717519058647683,0,0.5309847441635285,0,0.5083495162274787,0,,0,0.5821187976935552,0,0.5259082975238263,0,0.42516369325928566,0
2025-03-04 10:42:38.574,0.6722574004208364,0,0.6046537476597051,0,0.43037992680288367,0,0.45267285307666816,0,0.507913932208136,0,0.4904359495628415,0,,0,0.5882758439344957,0,0.5160867328126488,0,0.4252518805137556,0
2025-03-04 10:42:38.643,0.653591003509434,0,0.5965201121880483,0,0.4303516532091711,0,0.44600095709643134,0,0.5033419452079106,0,0.4947024303761115,0,,0,0.594264166810242,0,0.5415178205876311,0,0.4253664291111317,0
2025-03-04 10:42:38.711,0.6291569902746706,0,0.601306618385406,0,0.4347886809530493,0,0.45522773582019765,0,0.5205206109486444,0,0.508333026736037,0,,0,0.5964683242051567,0,0.5635762129259239,0,0.42548490787577126,0
2025-03-04 10:42:38.779,0.6140188457487059,0,0.6136553740989745,0,0.4529218424043813,0,0.4834685921365185,0,0.5480964784777621,0,0.5297207903484509,0,,0,0.6064542315598591,0,0.5541905651466434,0,0.4256277073788972,0
2025-03-04 10:42:38.848,0.6028058185964623,0,0.6254259724568259,0,0.4586374537332927,0,0.4957677723451812,0,0.576277753502423,0,0.5537575188661754,0,,0,0.6236705371464416,0,0.494261383001136,0,0.4257425990186015,0
2025-03-04 10:42:38.916,0.5131045437298651,0,0.5696020497352575,0,0.46472127310026246,0,0.4869699493600525,0,0.5643113542519167,0,0.5623873742458975,0,,0,0.644548425860209,0,0.4708310353329649,0,0.4258985738261196,0
2025-03-04 10:42:38.984,0.6265203170926663,0,0.5908665938586191,0,0.46489573750612917,0,0.5008678345008735,0,0.5643001099446924,0,0.5441239625653638,0,,0,0.6562013422404999,0,0.5008438450301571,0,0.42607946536821356,0
2025-03-04 10:42:39.053,0.6272718318255301,0,0.6427414924605003,0,0.46417753218902696,0,0.4947315126635366,0,0.5393577508269792,0,0.5088822675207253,0,,0,0.6543350873156829,0,0.49410815899125166,0,0.4263126895686407,0
2025-03-04 10:42:39.121,0.6689134633163489,0,0.6590471258198192,0,0.4654963854479237,0,0.48982482368386887,0,0.5352124084315264,0,0.49815723173107934,0,,0,0.6573445640293698,0,0.4818492603671127,0,0.4265484750228005,0
2025-03-04 10:42:39.190,0.7006947029245446,0,0.6794020199483195,0,0.4737559528390168,0,0.4899919676330435,0,0.5271424766703245,0,0.48439361246446644,0,,0,0.6483819291992198,0,0.463917249060432,0,0.4267928397388178,0
2025-03-04 10:42:39.258,0.7024232386337462,0,0.6876187258509718,0,0.48588527022047984,0,0.4951771126038105,0,0.5295089823737579,0,0.491504445556758,0,,0,0.6518831122597479,0,0.4561032087694324,0,0.42703004152315127,0
2025-03-04 10:42:39.326,0.6894722098257112,0,0.6965160068333122,0,0.4928216772720244,0,0.5055240704053868,0,0.5345280368750349,0,0.5146543099822046,0,,0,0.6650208277760671,0,0.4570282852977982,0,0.42725048031929436,0
2025-03-04 10:42:39.395,0.6909213478918842,0,0.6811981501724969,0,0.501634730334871,0,0.529087105498357,0,0.5600090589687082,0,0.5462442371503615,0,,0,0.6809398257085285,0,0.5150331751290198,0,0.42744817516433076,0
2025-03-04 10:42:39.463,0.6992686992963015,0,0.6928016341507282,0,0.5207994297673171,0,0.5628494381244485,0,0.5963159089430855,0,0.5734002429324413,0,,0,0.6858152986745462,0,0.557070980229952,0,0.42762122967775384,0
2025-03-04 10:42:39.531,0.7010085222659994,0,0.7034983727663238,0,0.547832756342141,0,0.5935293657255661,0,0.6319800780582472,0,0.6024967122727364,0,,0,0.6969828449495775,0,0.5994880617317548,0,0.42776446823211567,0
2025-03-04 10:42:39.600,0.6776014399259664,0,0.7149010782786744,0,0.5689708392292191,0,0.6056352671094047,0,0.6511011345728627,0,0.610175123799024,0,,0,0.6938866143897606,0,0.5943759069525811,0,0.4278904703239103,0
2025-03-04 10:42:39.668,0.67075664179863,0,0.7196769853186251,0,0.571746578049836,0,0.597261371894024,0,0.6443678962487124,0,0.6074078956660126,0,,0,0.6917692745620685,0,0.5752128502273431,0,0.42801397474776437,0
2025-03-04 10:42:39.736,0.6870287830236025,0,0.713645879630129,0,0.5628543390093194,0,0.5841467298615076,0,0.6306843598558405,0,0.5938133064936961,0,,0,0.6279857134393142,0,0.5770394219105941,0,0.4281508374237754,0
2025-03-04 10:42:39.805,0.7005000644309426,0,0.6892316230228341,0,0.5486817069889435,0,0.5794460248711573,0,0.6021517977487014,0,0.5783891942580572,0,,0,0.6450924624825736,0,0.5348557330776295,0,0.42829240250476075,0
2025-03-04 10:42:39.874,0.6983526246437757,0,0.6641049632111147,0,0.5334990266983777,0,0.5745652881399546,0,0.5865973027413848,0,0.5612171575683805,0,,0,0.6248780567662388,0,0.5277978271378326,0,0.4283829907153208,0
2025-03-04 10:42:39.942,0.7142037027474565,0,0.6666795393887327,0,0.5278787560724797,0,0.5700500662885327,0,0.5691612051448325,0,0.5420232168183398,0,,0,0.5984359716230767,0,0.4880314042517153,0,0.42849571888069793,0
2025-03-04 10:42:40.011,0.5740077460964829,0,0.5946827695903785,0,0.52497966728706,0,0.552964435647073,0,0.5555655532973944,0,0.532811271351887,0,,0,0.594360732236197,0,0.48210872301362356,0,0.42857997408936904,0
2025-03-04 10:42:40.079,0.6771914488167686,0,0.6538478210817422,0,0.5135356162706215,0,0.5338801347603299,0,0.5457992406943876,0,0.5216759290772716,0,,0,0.5949272516977202,0,0.4779404933040251,0,0.4286305931021623,0
2025-03-04 10:42:40.148,0.6540477421149592,0,0.642592680266137,0,0.5003950973459522,0,0.5118491932008771,0,0.5343388370428672,0,0.5074551711813517,0,,0,0.5957567924087728,0,0.47550071851601305,0,0.42865384702976983,0
2025-03-04 10:42:40.217,0.6571739028393531,0,0.6148683003480833,0,0.48588803312080436,0,0.5085358911802351,0,0.5463511131379389,0,0.5187273378721869,0,,0,0.6111214488354919,0,0.5030728348767409,0,0.42859424059516754,0
2025-03-04 10:42:40.285,0.6781771470350958,0,0.6471217662214943,0,0.5072764273017527,0,0.5414889097895056,0,0.5682356934325723,0,0.5337970782527044,0,,0,0.6056793846803646,0,0.5402399598901402,0,0.4285596563498693,0
2025-03-04 10:42:40.354,0.7025014148906097,0,0.676553313456782,0,0.5316222594147177,0,0.5756820989222401,0,0.5958377612507421,0,0.5581672038677903,0,,0,0.6094631385597246,0,0.5731210099173861,0,0.42850439118138,0
2025-03-04 10:42:40.422,0.7101492920291829,0,0.7045080092788735,0,0.5485695103804492,0,0.5942667270339016,0,0.6124057535534883,0,0.5727173222854094,0,,0,0.6153881472433561,0,0.5724069732635643,0,0.42845566508393335,0
2025-03-04 10:42:40.490,0.6954227722752045,0,0.7072366477899819,0,0.5560834142396264,0,0.5837824585205321,0,0.6057591697386242,0,0.5631301040482933,0,,0,0.6067960072631333,0,0.5471312987835129,0,0.4284516132433157,0
2025-03-04 10:42:40.559,0.6774939996743846,0,0.6754736563541138,0,0.5423366395186087,0,0.5530349734226506,0,0.5838360200349921,0,0.5390020722076052,0,,0,0.590723952923597,0,0.5196608525555891,0,0.4283868881269622,0
2025-03-04 10:42:40.627,0.6751893641076314,0,0.6510493291668119,0,0.530101760771407,0,0.5219037242318283,0,0.576289486407952,0,0.5320046720615538,0,,0,0.595900830083285,0,0.5050689846313852,0,0.4283249151580064,0
2025-03-04 10:42:40.695,0.682912794586053,0,0.6448963599165173,0,0.5225993993700383,0,0.5184730635013308,0,0.5709747341805637,0,0.532976737049768,0,,0,0.610819483435632,0,0.48108051001465185,0,0.42824054093018116,0
2025-03-04 10:42:40.764,0.6730080275040811,0,0.6188718122023934,0,0.49956432369608694,0,0.495907378523156,0,0.557410801495657,0,0.5331879139931175,0,,0,0.6216266464880246,0,0.47085053303228896,0,0.4281511495384996,0
2025-03-04 10:42:40.832,0.6575429462749239,0,0.6134852902991734,0,0.4795089231796795,0,0.48031946473929027,0,0.5432673425859819,0,0.5268922674888266,0,,0,0.6293672809126004,0,0.46877611546977854,0,0.4281058717885101,0
2025-03-04 10:42:40.901,0.6514193806084095,0,0.6245683947727937,0,0.47785135399107226,0,0.4778135580796652,0,0.5300632440885101,0,0.5162936418425813,0,,0,0.6297107510210759,0,0.47467008421055995,0,0.4279889876488935,0
2025-03-04 10:42:40.969,0.6476187349568994,0,0.6395097948595152,0,0.47294576251526593,0,0.47616786155395474,0,0.5243641120652528,0,0.505138334859956,0,,0,0.6301455362577726,0,0.4684152655553416,0,0.4278849004037789,0
2025-03-04 10:42:41.037,0.649414167086484,0,0.6555984663962854,0,0.46855439244633884,0,0.47509200610099656,0,0.526512729882649,0,0.5044557384256713,0,,0,0.6383849496886146,0,0.4631143731722544,0,0.42776162102088017,0
2025-03-04 10:42:41.105,0.652863755890356,0,0.6517655583768387,0,0.4538616435737775,0,0.48098725306133067,0,0.5438643247041985,0,0.52109974934748,0,,0,0.6604485936068859,0,0.4773638807351839,0,0.42768720017651224,0
2025-03-04 10:42:41.174,0.659294591309406,0,0.636748744055901,0,0.46183525251283186,0,0.4941478873658944,0,0.5632944535553467,0,0.5364543793955,0,,0,0.666085270660088,0,0.5125762434211636,0,0.4276249857214953,0
2025-03-04 10:42:41.242,0.6608105768102835,0,0.6228216303306842,0,0.47201283781330244,0,0.5150993603055783,0,0.5839724181421807,0,0.5564490559014421,0,,0,0.672222484079827,0,0.546973906554225,0,0.4275957363126858,0
2025-03-04 10:42:41.311,0.6778741746179582,0,0.6102631978832374,0,0.47983714913867015,0,0.5284213863847845,0,0.5891300374501609,0,0.557743827910852,0,,0,0.6542127438274011,0,0.5576719684159348,0,0.42758507823674013,0
2025-03-04 10:42:41.379,0.6779765570784417,0,0.6009080582014917,0,0.5067579780095155,0,0.5355630043239838,0,0.5827838238195052,0,0.5566800762087528,0,,0,0.6031947677999323,0,0.5407006740848823,0,0.4275619020484647,0
2025-03-04 10:42:41.447,0.6515064456498059,0,0.5470935669269025,0,0.4938694192448916,0,0.5208630841712593,0,0.5326447483775277,0,0.5243187850005188,0,,0,0.559077160830809,0,0.5162018112507756,0,0.42754142900323827,0
2025-03-04 10:42:41.517,0.5988709638376303,0,0.5341693740516036,0,0.5038967122719014,0,0.5328724045182385,0,0.519590975631511,0,0.5042862246147918,0,,0,0.5426441820833634,0,0.5044376695713226,0,0.4274748052121613,0
2025-03-04 10:42:41.585,0.4769898351512119,0,0.5183797120612719,0,0.4771817192620236,0,0.5242296174909412,0,0.515967676112665,0,0.524060694761599,0,,0,0.5694475396920106,0,0.507446999912251,0,0.42743646367220267,0
2025-03-04 10:42:41.654,0.42896484104402804,0,0.4975308847418595,0,0.4605904204134098,0,0.5054033934490457,0,0.507606777503264,0,0.5164759744196261,0,,0,0.5758912465031532,0,0.511971076688942,0,0.4274108102897675,0
2025-03-04 10:42:41.722,0.4118545000734655,0,0.5066185858093553,0,0.4650225036094516,0,0.49430492355004135,0,0.4943414787094784,0,0.5028414065425694,0,,0,0.5631617217011412,0,0.5077162265888804,0,0.42739558995985283,0
2025-03-04 10:42:41.790,0.4172903019694203,0,0.5336820520907156,0,0.4795883328511609,0,0.4889764894099703,0,0.48574111136348574,0,0.48927139351624055,0,,0,0.5516093718674491,0,0.49731422796503694,0,0.42738007450265364,0
2025-03-04 10:42:41.859,0.4569499704428213,0,0.5723225490216712,0,0.49441373503428543,0,0.4880550375897091,0,0.477847543663224,0,0.4828727912064273,0,,0,0.5571826369715291,0,0.48999171568436206,0,0.42732420727263076,0
2025-03-04 10:42:41.929,0.47658357162201376,0,0.5635905711987107,0,0.4931613859996049,0,0.47763999462412754,0,0.4780430573750105,0,0.48533971636855294,0,,0,0.5658635744754527,0,0.4959831440426853,0,0.4272834852360183,0
2025-03-04 10:42:41.998,0.48727844364162504,0,0.5342905712611257,0,0.486938376067486,0,0.4796059008577432,0,0.4876580535205885,0,0.4989728420513755,0,,0,0.5761615628635487,0,0.5148127912919196,0,0.42725912144318456,0
2025-03-04 10:42:42.067,0.4749068411161965,0,0.5808306311084984,0,0.47599641908547496,0,0.48176716363914246,0,0.5037221666657751,0,0.516636927536741,0,,0,0.5916451515103633,0,0.5457839409218752,0,0.4272493150456781,0
2025-03-04 10:42:42.136,0.4753695033435681,0,0.5151764010951798,0,0.49599450333396405,0,0.5055421678059224,0,0.5222568971621949,0,0.5266158203169549,0,,0,0.5831707019084623,0,0.5552156008401773,0,0.4273047359377749,0
2025-03-04 10:42:42.204,0.4500048606309876,0,0.491548813314139,0,0.5048092256876522,0,0.5232179050570446,0,0.5312069884460029,0,0.5322272415091707,0,,0,0.5842521213169205,0,0.5477493544068525,0,0.4273406629816113,0
2025-03-04 10:42:42.272,0.45332942314194286,0,0.5173308697800404,0,0.5046967498156139,0,0.5276137782370739,0,0.5198862764323665,0,0.5177489676451543,0,,0,0.564081448217241,0,0.5362125887280523,0,0.427369582524915,0
2025-03-04 10:42:42.341,0.4928700187817256,0,0.5218535706276948,0,0.5116876613207503,0,0.5307232073388414,0,0.5148805532731099,0,0.5146418764119635,0,,0,0.5533199908846013,0,0.49749041323848797,0,0.42739049664878653,0
2025-03-04 10:42:42.409,0.5288647076802359,0,0.5169803408744702,0,0.5206313870145306,0,0.5335959320300397,0,0.5087080250307716,0,0.5091139304603934,0,,0,0.5530392958430446,0,0.5343760867345616,0,0.42742267472563433,0
2025-03-04 10:42:42.478,0.5469694876368808,0,0.46070593574629737,0,0.5193837696126674,0,0.5294055466347694,0,0.49813769617276044,0,0.49707447889140927,0,,0,0.5499435805848686,0,0.5336059510074959,0,0.42747986603522564,0
2025-03-04 10:42:42.546,0.525887797518262,0,0.5278194772935704,0,0.5100730301528734,0,0.5192398426827254,0,0.5016771043979895,0,0.49954355655630345,0,,0,0.5541019520737311,0,0.5252275134832358,0,0.4275359219885372,0
2025-03-04 10:42:42.614,0.5137340555407284,0,0.5290890116909377,0,0.5036643276067507,0,0.5118131639360484,0,0.49501832893069914,0,0.4899090551949076,0,,0,0.5422984717484746,0,0.5140117886055914,0,0.42758915170629513,0
2025-03-04 10:42:42.683,0.48698998890098044,0,0.5301632988479456,0,0.4962747010926449,0,0.5037644320597479,0,0.48859944056522603,0,0.4801714967181291,0,,0,0.5265604809799345,0,0.49865657187563134,0,0.4276437010376644,0
2025-03-04 10:42:42.754,0.4510110440660249,0,0.5356156627109079,0,0.48313339233074776,0,0.49102593783656123,0,0.4928165259862517,0,0.490684213164609,0,,0,0.5454253730524593,0,0.5122196719322729,0,0.4655914311021045,0
2025-03-04 10:42:42.820,0.427223405710064,0,0.5258193569878408,0,0.4805536169124072,0,0.4885452302242088,0,0.5042483097937367,0,0.5113381853372195,0,,0,0.5701736424637177,0,0.5030028702382817,0,0.6393707295689661,0
2025-03-04 10:42:42.889,0.4156592190019822,0,0.5211458925174117,0,0.47968235626502626,0,0.4940291328033882,0,0.5267306491776803,0,0.5474212745178756,0,,0,0.6017278910124795,0,0.5166440802359186,0,0.888447380340782,0
2025-03-04 10:42:42.958,0.4226542738930917,0,0.52099954143115,0,0.4872643616515986,0,0.5110581320968824,0,0.5458861918362864,0,0.5729789706915811,0,,0,0.5896602187978358,0,0.5222020349467343,0,0.8886162152660653,0
2025-03-04 10:42:43.026,0.45252603038040345,0,0.52578211810174,0,0.4931536636026919,0,0.5325575781871101,0,0.5505432258745244,0,0.5678418315160498,0,,0,0.5765080191114474,0,0.5074301624223846,0,0.8886623553007518,0
2025-03-04 10:42:43.095,0.4718618283322464,0,0.5364141756193497,0,0.49845307385804877,0,0.5392086696001673,0,0.5476328451675884,0,0.557102302003416,0,,0,0.5536077775586562,0,0.47205765773322944,0,0.8750992229735769,0
2025-03-04 10:42:43.163,0.46322986176151515,0,0.5418131136626246,0,0.4917116810348899,0,0.5376813602057566,0,0.5407053078830659,0,0.5480292158937372,0,,0,0.5993368553498225,0,0.469368450625405,0,0.83520130859448,0
2025-03-04 10:42:43.232,0.4608019010258021,0,0.526081728670663,0,0.4868036706582882,0,0.5239950320802834,0,0.5224017401309765,0,0.5342189326756986,0,,0,0.6044301853725123,0,0.47592688596338584,0,0.7850800366044176,0
2025-03-04 10:42:43.304,0.47585758354685703,0,0.5031299555753839,0,0.4799303062449484,0,0.504078919559133,0,0.5079593034021842,0,0.5265958853311773,0,,0,0.6324402556902248,0,0.49868059430231354,0,0.7592969871636956,0
2025-03-04 10:42:43.368,0.49058033858091904,0,0.47628135609894007,0,0.47503039839656863,0,0.49447198295616207,0,0.5026226299727808,0,0.525485288263437,0,,0,0.6567429088314182,0,0.5234526601934365,0,0.7507382524856281,0
2025-03-04 10:42:43.437,0.48515229198365195,0,0.4515128892602145,0,0.4661579277264721,0,0.4830833076264722,0,0.49544591862076137,0,0.513522164818288,0,,0,0.6499742056478098,0,0.5112734388010286,0,0.7346343864170495,0
2025-03-04 10:42:43.505,0.47346611608660205,0,0.42451413082934664,0,0.4564007268471517,0,0.47554221640337374,0,0.48401371386486064,0,0.49532229439834213,0,,0,0.6222759905979072,0,0.4804460804173285,0,0.6879528500237991,0
2025-03-04 10:42:43.574,0.5647110238815873,0,0.45437127013004075,0,0.44454579976999975,0,0.46774074192629583,0,0.4786606482000522,0,0.4856832470634861,0,,0,0.5984410296002937,0,0.4743811590736338,0,0.6036358140746713,0
2025-03-04 10:42:43.643,0.4524916023776671,0,0.525318503301721,0,0.45932749636281095,0,0.4826729228889649,0,0.4798427061680141,0,0.4796717944678412,0,,0,0.5845859323994875,0,0.45776645159232887,0,0.49138906564914103,0
2025-03-04 10:42:43.711,0.4690869091510941,0,0.5609495903395345,0,0.4781744646115197,0,0.492968725680811,0,0.49138355745328166,0,0.49319234481723156,0,,0,0.5939854821831423,0,0.4773564372317148,0,0.3780994418237186,0
2025-03-04 10:42:43.779,0.4947190927070565,0,0.5694218973684703,0,0.49359702591431903,0,0.50692713414858,0,0.5027762232001401,0,0.5111441934923149,0,,0,0.6202736174834594,0,0.5054447569142207,0,0.2682064223119446,0
2025-03-04 10:42:43.848,0.43951917889791703,0,0.5661545639922979,0,0.4953089626855597,0,0.5121593100665897,0,0.5088198054061085,0,0.514864511825783,0,,0,0.6389656117670792,0,0.5248512635986856,0,0.26145953679150014,0
2025-03-04 10:42:43.916,0.51687792747353,0,0.5549234149984612,0,0.4940421938505784,0,0.5148386656790621,0,0.5111572542215312,0,0.5071179899874982,0,,0,0.6414940572591007,0,0.5295549570142595,0,0.2617266764102902,0
2025-03-04 10:42:43.984,0.5039594908365135,0,0.556240079626254,0,0.4946990231874024,0,0.5229118365065588,0,0.5061411018759776,0,0.496272019700021,0,,0,0.6364345374100362,0,0.5206306693716696,0,0.26129040869198195,0
2025-03-04 10:42:44.054,0.4886313480007029,0,0.5334748320357079,0,0.4831193139908772,0,0.5109227179096241,0,0.4997403254315828,0,0.4961125905041654,0,,0,0.6290489397433452,0,0.5240041649923273,0,0.26106473579261796,0
2025-03-04 10:42:44.123,0.4798930918871096,0,0.5272753110056428,0,0.46592467898405404,0,0.5002379230973063,0,0.5003344709057026,0,0.5071145088224909,0,,0,0.6258564658353333,0,0.48000562264402497,0,0.26085250707558516,0
2025-03-04 10:42:44.191,0.32708580329080245,0,0.4491893131298915,0,0.4753906809923589,0,0.5049481637669144,0,0.4988222920997068,0,0.5082739339627598,0,,0,0.6149567447328684,0,0.5447936751175201,0,0.26085423298764443,0
2025-03-04 10:42:44.260,0.4077219471685898,0,0.4975363681412647,0,0.4812670070812164,0,0.4938112033541431,0,0.4836336142113999,0,0.49795238428275534,0,,0,0.6207761195846944,0,0.5343274972811929,0,0.2606633210328661,0
2025-03-04 10:42:44.328,0.35880272975262273,0,0.5250300036286006,0,0.4849049829857239,0,0.489815346912181,0,0.4728392547869741,0,0.4881602406433601,0,,0,0.6416918499984301,0,0.522328334883842,0,0.26040578649770485,0
2025-03-04 10:42:44.396,0.6083654422970713,0,0.5308720577291671,0,0.4792701768659978,0,0.4855576481819302,0,0.45854693233236465,0,0.47682606524916404,0,,0,0.6417922251136243,0,0.5263356118256385,0,0.26014149234867856,0
2025-03-04 10:42:44.465,0.41662550642896,0,0.5260813233085457,0,0.4912794800824548,0,0.4996103846400594,0,0.4636001301943803,0,0.4814320857019038,0,,0,0.6495399277952486,0,0.5407575986026085,0,0.25995202612111845,0
2025-03-04 10:42:44.533,0.43101808753724014,0,0.5197825167949884,0,0.49731273105666574,0,0.5086456112052976,0,0.47451142864905965,0,0.4918100724856838,0,,0,0.6371729952907658,0,0.562207767415125,0,0.26358619200557576,0
2025-03-04 10:42:44.603,0.4443927138399079,0,0.5375162106053853,0,0.5149913293645776,0,0.5206460611365012,0,0.5043277496861661,0,0.5162712551925656,0,,0,0.6449938067115201,0,0.5761917809483755,0,0.2710378261103745,0
2025-03-04 10:42:44.670,0.464241978225253,0,0.45740840376722236,0,0.5038404570088004,0,0.5433282810999205,0,0.5336166815594366,0,0.5358883286612001,0,,0,0.6538868985275524,0,0.5712274908341732,0,0.2809083621233797,0
2025-03-04 10:42:44.738,0.47977227912025905,0,0.5153042895260664,0,0.5484268532265621,0,0.5474839000694313,0,0.5450621363582073,0,0.5376696717935846,0,,0,0.6549454379783114,0,0.5429195212880591,0,0.29368439934625956,0
2025-03-04 10:42:44.807,0.45034917395249124,0,0.5255816519017137,0,0.541068914323414,0,0.5334869965021816,0,0.5367914095766438,0,0.5269489380508474,0,,0,0.6410149271197737,0,0.5098830551391753,0,0.3103410972946256,0
2025-03-04 10:42:44.875,0.4007191212810254,0,0.5353899228537194,0,0.5212681536972394,0,0.516231492971492,0,0.5347116507237653,0,0.5282068574841454,0,,0,0.6400444124257759,0,0.4961445786722707,0,0.33210405229769957,0
2025-03-04 10:42:44.943,0.3824524377370472,0,0.5061111778481912,0,0.5005166918443399,0,0.5026853047514527,0,0.5276379939295324,0,0.5320754977699567,0,,0,0.6362090864745551,0,0.4940625413269414,0,0.3606202488366057,0
2025-03-04 10:42:45.013,0.3560407697958434,0,0.49371916875254973,0,0.4762519307006594,0,0.4883158828592269,0,0.5179469537761879,0,0.5379004195170692,0,,0,0.6457606612983527,0,0.4963182431238004,0,0.3984548266482625,0
2025-03-04 10:42:45.081,0.3696940583333659,0,0.5022935119352994,0,0.45996818437736914,0,0.4841928728916806,0,0.5035899422535772,0,0.5277367856848607,0,,0,0.6561326859430149,0,0.4842830482018844,0,0.4463106100052505,0
2025-03-04 10:42:45.154,0.3781040796102997,0,0.5186255713200465,0,0.44689250230677807,0,0.46925542879792675,0,0.4900587493219071,0,0.511289679289271,0,,0,0.6466128488600867,0,0.46798803726366417,0,0.5160670163654186,0
2025-03-04 10:42:45.218,0.41082602943573876,0,0.5234562306815987,0,0.451544080077955,0,0.47125386891914106,0,0.4908120242823571,0,0.5433845751556505,0,,0,0.6888664630207825,0,0.4610331248210533,0,0.5807325773076405,0
2025-03-04 10:42:45.286,0.42650402196767795,0,0.5148821064239625,0,0.44353009371899044,0,0.4634129259532382,0,0.5021321157889675,0,0.5911451391587639,0,,0,0.6762999486518199,0,0.45098134972476245,0,0.6814804546463893,0
2025-03-04 10:42:45.354,0.5090675751812178,0,0.4772740387483527,0,0.44198559482901184,0,0.4724679727439063,0,0.5254111132507424,0,0.6241800340879077,0,,0,0.6527039033172307,0,0.4585395320989958,0,0.7289972609103387,0
2025-03-04 10:42:45.424,0.4062503964329425,0,0.46461982581082373,0,0.46043141964646994,0,0.49219163018340756,0,0.548573936384,0,0.5581286188924142,0,,0,0.5964579481242863,0,0.4730743788633278,0,0.7289631863457963,0
2025-03-04 10:42:45.492,0.3607572882048262,0,0.45715091015885256,0,0.4676226795162925,0,0.5193302135914497,0,0.5500363507683818,0,0.6389832543292467,0,,0,0.6974097157716072,0,0.48649112131056904,0,0.7289753818193008,0
2025-03-04 10:42:45.560,0.411067697520905,0,0.466037179808128,0,0.4767806935330303,0,0.5248101624567376,0,0.5375405661830077,0,0.5852729583053846,0,,0,0.7089801763505298,0,0.5082878199736665,0,0.7290218471860578,0
2025-03-04 10:42:45.629,0.47133239149756484,0,0.49697745080764355,0,0.48423083885062473,0,0.5120812536577624,0,0.4713068389726594,0,0.4594771807005602,0,,0,0.6828176287131201,0,0.5355552902892587,0,0.7290042705612092,0
2025-03-04 10:42:45.697,0.4129055769933487,0,0.5090590293106262,0,0.4866025898319016,0,0.4936590291633842,0,0.46053994489567335,0,0.4271489270364099,0,,0,0.6581500033123403,0,0.5371495938411212,0,0.7291610252188094,0
2025-03-04 10:42:45.766,0.48427023008464987,0,0.5200507589151906,0,0.48047314408486685,0,0.4759053246057349,0,0.4492298388936312,0,0.40438372369339504,0,,0,0.6405755155657035,0,0.5164757933323981,0,0.729199477218374,0
2025-03-04 10:42:45.835,0.4405115728681818,0,0.5096876330775799,0,0.46234703443846054,0,0.4605928842124817,0,0.4481794084108295,0,0.4098849949713853,0,,0,0.588067817849879,0,0.4986188154443361,0,0.7298638730534255,0
2025-03-04 10:42:45.903,0.40712121191862394,0,0.482460378877096,0,0.4476159689418962,0,0.4485964171448892,0,0.44368057406569417,0,0.4094408580770471,0,,0,0.6620287393211608,0,0.48497063977837085,0,0.7300370369234414,0
2025-03-04 10:42:45.973,0.41407737977542003,0,0.49815559444696395,0,0.45919035871292485,0,0.46164100104346134,0,0.45262517407104735,0,0.43014772930162004,0,,0,0.6798760043333446,0,0.4915964759699225,0,0.7300147218880086,0
2025-03-04 10:42:46.041,0.4659754947956721,0,0.5591692641275474,0,0.48982497467713265,0,0.4820972629598694,0,0.494120740125035,0,0.442392868121154,0,,0,0.6816726189874377,0,0.5064969789701097,0,0.7295238083374906,0
2025-03-04 10:42:46.109,0.4866061515134503,0,0.6064304143267574,0,0.5257154262780659,0,0.5104904460081695,0,0.5122159058221729,0,0.46331067939842285,0,,0,0.6828910558587786,0,0.534751048927365,0,0.7291012454707977,0
2025-03-04 10:42:46.178,0.5243984867324134,0,0.6225647122860335,0,0.5397913466418615,0,0.5318608810182341,0,0.5337159311166422,0,0.4810614543714281,0,,0,0.6772633233407758,0,0.518233969116466,0,0.7254621478944242,0
2025-03-04 10:42:46.246,0.5006559702344491,0,0.609684752704989,0,0.5343300172072626,0,0.5481453452208954,0,0.54607683186143,0,0.49569464878075875,0,,0,0.6896582199050282,0,0.5469442453620157,0,0.7188411903809303,0
2025-03-04 10:42:46.314,0.5016681195398957,0,0.5818096391121823,0,0.5177047207818833,0,0.5408107315505991,0,0.5479426668993417,0,0.4967847497358203,0,,0,0.7033384519854637,0,0.5405251201722501,0,0.7096807869296762,0
2025-03-04 10:42:46.383,0.4825075989689298,0,0.5656793870537573,0,0.510658442079864,0,0.5288400000276017,0,0.5463137328636988,0,0.5151870106638758,0,,0,0.7315753581374812,0,0.5357559004023892,0,0.6982786660167415,0
2025-03-04 10:42:46.453,0.4503856530113443,0,0.5480368901894523,0,0.499057249044024,0,0.5135822039330321,0,0.5351712523820749,0,0.5126499643812592,0,,0,0.7385152370567556,0,0.5281317831005119,0,0.6829233471347044,0
2025-03-04 10:42:46.519,0.5702117488187424,0,0.5370814664741536,0,0.4941959190342428,0,0.49114252579886153,0,0.5107255444080625,0,0.48726562267937673,0,,0,0.7217026571294718,0,0.5138810778076426,0,0.6689906958584634,0
2025-03-04 10:42:46.588,0.4080354870028486,0,0.5190005970875294,0,0.4728706288885422,0,0.4760182038299169,0,0.48807049113163586,0,0.45596904937322846,0,,0,0.7019702208410661,0,0.5052988056482068,0,0.6497922487686963,0
2025-03-04 10:42:46.656,0.3702018344160852,0,0.5308769360546925,0,0.46208800675670586,0,0.4609481153069769,0,0.47401525826538093,0,0.43268139158404684,0,,0,0.6911708257550985,0,0.5010530846317979,0,0.6224918045547049,0
2025-03-04 10:42:46.725,0.516736703325396,0,0.5209176762354712,0,0.45001035936360045,0,0.460067037052065,0,0.4998568844054955,0,0.4469266171527537,0,,0,0.7025369578015881,0,0.5370672840555546,0,0.5804404612479244,0
2025-03-04 10:42:46.794,0.3567176293467714,0,0.5382847919198525,0,0.5767336797337272,0,0.5621047457113227,0,0.5243849163960463,0,0.47547262807260227,0,,0,0.7245102204906868,0,0.5568962439609026,0,0.5229344120634721,0
2025-03-04 10:42:46.862,0.3714729056899669,0,0.5401735289481034,0,0.6258240399650072,0,0.5875886279207786,0,0.5555549862273496,0,0.5094276270143475,0,,0,0.7354181384236952,0,0.5797625532620999,0,0.4420299787356897,0
2025-03-04 10:42:46.931,0.4354740308828582,0,0.555552651153199,0,0.67467077580367,0,0.6244421155727328,0,0.5844242144199018,0,0.5363725152608658,0,,0,0.6912598840428091,0,0.5360001017274472,0,0.3331598746655007,0
2025-03-04 10:42:47.003,0.39378794330210426,0,0.5573623645476938,0,0.7293907105952155,0,0.5824575778791692,0,0.5235459495899837,0,0.5194325877402374,0,,0,0.6233187245821926,0,0.5698093220100376,0,0.2837593535802442,0
2025-03-04 10:42:47.067,0.438411069154829,0,0.6099713400056131,0,0.6560308246123618,0,0.5797304440825501,0,0.5508737321939338,0,0.4884967297670161,0,,0,0.5861024939502103,0,0.5485618744491844,0,0.2862821080022994,0
2025-03-04 10:42:47.137,0.476345208958769,0,0.5817389042059328,0,0.6183155331191762,0,0.5604503267311877,0,0.5374698236966237,0,0.46973958050859027,0,,0,0.5349887274503199,0,0.4421642552920181,0,0.28614909454999904,0
2025-03-04 10:42:47.206,0.461391812062673,0,0.46486102413178265,0,0.6208137898229762,0,0.5285418871449502,0,0.5257512188202194,0,0.4769370123167795,0,,0,0.5902434083870669,0,0.5418000772862499,0,0.28690033361324907,0
2025-03-04 10:42:47.274,0.4344474585793232,0,0.4715449694785636,0,0.5907437341749937,0,0.5144752792010473,0,0.5169181548531037,0,0.480058637305933,0,,0,0.6073815496043022,0,0.5372576651138389,0,0.2878223675878313,0
2025-03-04 10:42:47.344,0.42639554116469397,0,0.46518107785612967,0,0.5616489047190583,0,0.489188358006123,0,0.5087803354819044,0,0.4856910212678079,0,,0,0.6349594368495702,0,0.5185566047970136,0,0.28814339346751927,0
2025-03-04 10:42:47.412,0.41549606133585,0,0.4496653811044866,0,0.5390702516400967,0,0.47520503756072746,0,0.5018756373779374,0,0.47427868559579506,0,,0,0.6256906830464057,0,0.5079954890336366,0,0.2877613628093117,0
2025-03-04 10:42:47.480,0.4328935279421218,0,0.4432864972227268,0,0.5117744283730782,0,0.46761168899100836,0,0.5007753018047136,0,0.4697698463939923,0,,0,0.623722281102203,0,0.5088711900222073,0,0.2867726947353987,0
2025-03-04 10:42:47.554,0.44309936353763,0,0.45683913645504,0,0.5177261738700227,0,0.5027226904540114,0,0.5035055217279901,0,0.49666458026715204,0,,0,0.616929367653994,0,0.5229761890773761,0,0.2848261755709227,0
2025-03-04 10:42:47.617,0.44263247955761076,0,0.4800726970619661,0,0.5549209133839971,0,0.507436798225736,0,0.5416875688195569,0,0.5192928635476538,0,,0,0.6077561363709875,0,0.5582452891690256,0,0.2861616137776882,0
2025-03-04 10:42:47.685,0.4572371526813103,0,0.3619537100722664,0,0.5587415765425986,0,0.5403213540634537,0,0.5433268804055713,0,0.4912782366402957,0,,0,0.6076955708582586,0,0.5522528752602656,0,0.2832793572619351,0
2025-03-04 10:42:47.754,0.46809119384952586,0,0.5026064501106605,0,0.4975565658772077,0,0.5098218330800873,0,0.4793448411532792,0,0.4794362511141968,0,,0,0.5921809506510699,0,0.5657065347330378,0,0.2830452086859239,0
2025-03-04 10:42:47.822,0.4771392336358747,0,0.45227606179569063,0,0.5368715225030466,0,0.4170882039170907,0,0.5139734121687967,0,0.5130098683464438,0,,0,0.6175537598458151,0,0.543953186654736,0,0.2831665546868233,0
2025-03-04 10:42:47.890,0.4092671339040641,0,0.5114815034553762,0,0.5251945375012482,0,0.5289512912502975,0,0.5457712219796829,0,0.4910431873994172,0,,0,0.6110162550173122,0,0.5246888183179005,0,0.28753590892252423,0
2025-03-04 10:42:47.959,0.41468565065218865,0,0.4920160286079338,0,0.4977833185514403,0,0.4837754339557059,0,0.5373915968759756,0,0.4725120852951788,0,,0,0.628516640434485,0,0.5140048630066859,0,0.29879640697131304,0
2025-03-04 10:42:48.027,0.3866636494093164,0,0.46264156606583245,0,0.4705651664879424,0,0.46779391155971467,0,0.5189034223388845,0,0.4537240217294285,0,,0,0.620058535698443,0,0.49817146597823364,0,0.31577185353977383,0
2025-03-04 10:42:48.104,0.3672602356221828,0,0.41772229230243385,0,0.44466188918630684,0,0.43097048593228554,0,0.5025008641138834,0,0.43471114010178175,0,,0,0.6153293621276085,0,0.4809542019766722,0,0.34658680975196415,0
2025-03-04 10:42:48.164,0.37038707660151676,0,0.409982626364229,0,0.5379702515551312,0,0.48544465933787695,0,0.486718162846924,0,0.4371457751698821,0,,0,0.6375242149957798,0,0.4724761416226207,0,0.34462595906513444,0
2025-03-04 10:42:48.233,0.35675825062559113,0,0.42169189188750666,0,0.4552494902733859,0,0.5330344048709489,0,0.4802462739791996,0,0.43755382507109813,0,,0,0.6418414137345279,0,0.48009176471591125,0,0.368523145430584,0
2025-03-04 10:42:48.303,0.3496070009869237,0,0.44741681081100676,0,0.4611970879737586,0,0.5275334853595302,0,0.49556658820860316,0,0.4436640560367041,0,,0,0.6324113746573367,0,0.5040057445850149,0,0.3843711811374892,0
2025-03-04 10:42:48.371,0.36146385704748174,0,0.46599526872441727,0,0.5276281087925703,0,0.5422122032362899,0,0.5281320925154757,0,0.47057773638737915,0,,0,0.643581951359166,0,0.5416737657079271,0,0.39814451103272697,0
2025-03-04 10:42:48.439,0.4216755843837599,0,0.4271120053902813,0,0.5254151189960791,0,0.5677876222768621,0,0.5744083541408787,0,0.5140550468748231,0,,0,0.6730811638111148,0,0.5838260393069512,0,0.4241043246297735,0
2025-03-04 10:42:48.508,0.46980607099343225,0,0.3771710307930091,0,0.4913584384782442,0,0.5435410186966676,0,0.6017340327980552,0,0.5432471342030649,0,,0,0.6958028446800776,0,0.5776798320204132,0,0.46577922977141945,0
2025-03-04 10:42:48.577,0.4482480765313679,0,0.3326924927884079,0,0.4970926844913019,0,0.4498196845340477,0,0.5716600169456396,0,0.4762324120898605,0,,0,0.4609268697680528,0,0.4330726469287934,0,0.5354644448497329,0
2025-03-04 10:42:48.645,0.39505452071448277,0,0.3416313453069711,0,0.5093010037517148,0,0.5047817021726486,0,0.5835294396938481,0,0.5164153935384603,0,,0,0.6784081304812486,0,0.5800841987241897,0,0.6256618198965284,0
2025-03-04 10:42:48.714,0.40381782232615426,0,0.37133528085270956,0,0.5009528349479986,0,0.5152459307653731,0,0.5666985768564451,0,0.517153022465809,0,,0,0.656209852540101,0,0.5712813652151758,0,0.6615415933875352,0
2025-03-04 10:42:48.782,0.44031594654064954,0,0.41038213823859837,0,0.45813869176812433,0,0.4474428747523343,0,0.5584831772069155,0,0.5406963033113616,0,,0,0.6299632031906811,0,0.6049772919154177,0,0.7504152525607012,0
2025-03-04 10:42:48.854,0.42743788187353976,0,0.40563921477934856,0,0.5411659683810682,0,0.5107220705038942,0,0.5872840609702193,0,0.5508284698841284,0,,0,0.5990658048652682,0,0.5668313299558664,0,0.7415058380513638,0
2025-03-04 10:42:48.919,0.5999253687516523,0,0.5773874518026314,0,0.6278323933140731,0,0.5940197764132101,0,0.5427520000462946,0,0.530588491165494,0,,0,0.6189666023220896,0,0.5358687722084791,0,0.7630854791472329,0
2025-03-04 10:42:48.987,0.6253407455791397,0,0.5505197272096187,0,0.48693092804807325,0,0.489967005685493,0,0.5238414079320648,0,0.5471836193686614,0,,0,0.587385878386896,0,0.5311188888370015,0,0.7648490791910321,0
2025-03-04 10:42:49.055,0.5855427518188847,0,0.5641332483817265,0,0.5847525167785693,0,0.5431675449329191,0,0.5208339898974261,0,0.5857002610853212,0,,0,0.6206657176102461,0,0.5473619404004307,0,0.7651717278568384,0
2025-03-04 10:42:49.124,0.39252991038409574,0,0.5720150097372501,0,0.6017878137674595,0,0.5573206823063809,0,0.5446201397118136,0,0.6068371902400927,0,,0,0.6231979139925188,0,0.5812949192401516,0,0.7644292617235732,0
2025-03-04 10:42:49.192,0.622364201515644,0,0.5747705514556241,0,0.6533442132094893,0,0.6154894468238737,0,0.570065273801103,0,0.6273486927406838,0,,0,0.5805550897894295,0,0.6073625430615927,0,0.7630515059411841,0
2025-03-04 10:42:49.262,0.4592403442571308,0,0.46873656214331516,0,0.6283827945931537,0,0.6169095775854562,0,0.5966650963764752,0,0.6327496910442038,0,,0,0.5196027340575992,0,0.53996832097692,0,0.7622908522882036,0
2025-03-04 10:42:49.330,0.6306367809497492,0,0.5109206109244318,0,0.5567800303079746,0,0.6308288486689315,0,0.4702056832875697,0,0.5241978961540277,0,,0,0.5401431230406178,0,0.4965481291827045,0,0.7628030343252763,0
2025-03-04 10:42:49.403,0.5165018231809116,0,0.5069165781443925,0,0.5701729208829214,0,0.5612679896214203,0,0.4214002035608259,0,0.42742266682202223,0,,0,0.470650211676134,0,0.4999616773997166,0,0.7415372499642158,0
2025-03-04 10:42:49.467,0.5272006544721486,0,0.4085567070841103,0,0.4649944599113717,0,0.5640723479075656,0,0.42887069240905024,0,0.5093207348738401,0,,0,0.5584018669403154,0,0.4382339781997187,0,0.7651582921415875,0
2025-03-04 10:42:49.535,0.5324614049675883,0,0.4319098427426403,0,0.4743450256742044,0,0.5500156143737979,0,0.4104630632395467,0,0.5024816845617829,0,,0,0.5619006527828968,0,0.47843955159986923,0,0.769238353289168,0
2025-03-04 10:42:49.603,0.5464410135420756,0,0.4535564386457869,0,0.4815469568279515,0,0.5125283041182926,0,0.39700396812242483,0,0.4519869357500478,0,,0,0.5061905195583495,0,0.46604342098259627,0,0.7710470866669091,0
2025-03-04 10:42:49.672,0.5936385460984752,0,0.4887154518585483,0,0.4909527687487072,0,0.4830734051428105,0,0.39362635050125533,0,0.4877390924374418,0,,0,0.5917564283314338,0,0.46605920117223554,0,0.7655838769274061,0
2025-03-04 10:42:49.740,0.5860103243138182,0,0.6212344545590391,0,0.571210181188466,0,0.5043056686347678,0,0.38784961056189304,0,0.4911375479014931,0,,0,0.5840969293754116,0,0.44525036657086625,0,0.7533786046426525,0
2025-03-04 10:42:49.808,0.5801333669878274,0,0.5944971246852732,0,0.5029908379145847,0,0.44927086662567906,0,0.3709927865498525,0,0.4630053068744988,0,,0,0.6034461748570052,0,0.43836844826445703,0,0.7346670552067692,0
2025-03-04 10:42:49.877,0.590561313396977,0,0.5048966218602806,0,0.5013782705001935,0,0.4564443373828557,0,0.5046860492409323,0,0.4824419560889824,0,,0,0.5906441147833821,0,0.4789106135488708,0,0.7122267540887581,0
2025-03-04 10:42:49.945,0.5820167719374579,0,0.5769786650780526,0,0.5042613411990696,0,0.48309685125732904,0,0.5407866045824815,0,0.5146987806500667,0,,0,0.6183593341192035,0,0.5425560596893725,0,0.6880844617699233,0
2025-03-04 10:42:50.013,0.5066413608175779,0,0.5313304682716775,0,0.5453489855236302,0,0.5421406551322503,0,0.5505420400604446,0,0.5462408163600562,0,,0,0.671704950814933,0,0.5784711588679463,0,0.6772114290991846,0
2025-03-04 10:42:50.082,0.6545992173424906,0,0.5619006592432382,0,0.5694423781016644,0,0.5946888247962759,0,0.5120236962792969,0,0.5614328542880715,0,,0,0.6673929317471086,0,0.5836475063293567,0,0.6459145567057593,0
2025-03-04 10:42:50.154,0.5494714435777879,0,0.5772929261606263,0,0.6072451682267308,0,0.6043400677662406,0,0.4288092107414681,0,0.5280472591237804,0,,0,0.6037424754794496,0,0.5250952616565128,0,0.5929124249526726,0
2025-03-04 10:42:50.218,0.5466863415973622,0,0.5507157816816955,0,0.5047531536017107,0,0.5472809685162254,0,0.3780460917383802,0,0.4999812319422428,0,,0,0.5835361346599217,0,0.4595998175412229,0,0.5988659189527173,0
2025-03-04 10:42:50.288,0.5269197661960321,0,0.5279557023587474,0,0.46069466831609746,0,0.4381123575654707,0,0.36595917967312314,0,0.40718548759176726,0,,0,0.41397840285991694,0,0.4181582937732141,0,0.5356196281508535,0
2025-03-04 10:42:50.356,0.5045946535140049,0,0.4772700357115352,0,0.49515399908278585,0,0.45426706466373523,0,0.3470544615096609,0,0.4080580569931644,0,,0,0.45268194722392124,0,0.4387957399108083,0,0.41476117054983236,0
2025-03-04 10:42:50.425,0.48867399897487507,0,0.43861503619059633,0,0.4448966803621431,0,0.412749814829365,0,0.3361114847275774,0,0.395827619964831,0,,0,0.46161608630268613,0,0.4392612447168579,0,0.30194808841617293,0
2025-03-04 10:42:50.494,0.45447756240416737,0,0.43672661484642467,0,0.4547749715040705,0,0.4215877945092418,0,0.31814038710248055,0,0.39035876551264115,0,,0,0.484570693491246,0,0.44766880637065604,0,0.30160357589275955,0
2025-03-04 10:42:50.562,0.5335892440337924,0,0.4663133673262317,0,0.4499979175550989,0,0.42545768918590127,0,0.39770164420618526,0,0.5345700073247798,0,,0,0.5927483677697503,0,0.41774240187950445,0,0.3006471635386587,0
2025-03-04 10:42:50.632,0.571806981344537,0,0.5012778016287592,0,0.5703656919798845,0,0.5278514691660199,0,0.4276664616203574,0,0.47418086467666803,0,,0,0.5190402459778846,0,0.4271108648663589,0,0.28765006097166895,0
2025-03-04 10:42:50.704,0.5874879481900901,0,0.6107152856353026,0,0.5188306956231543,0,0.5082677720390866,0,0.4750741161311279,0,0.5364274749758937,0,,0,0.6326023805590719,0,0.4537630711837639,0,0.2617323615614386,0
2025-03-04 10:42:50.769,0.5646447505728701,0,0.6030836345636195,0,0.5630515273228412,0,0.5688308225009928,0,0.5193165892168699,0,0.5852182850740221,0,,0,0.6771719274039805,0,0.5425380314412955,0,0.26940809356834233,0
2025-03-04 10:42:50.838,0.5621711374150121,0,0.6095511735416941,0,0.5801684241586067,0,0.5719303948213673,0,0.5353817890022113,0,0.5944219699669513,0,,0,0.6181192132996736,0,0.5051839350704754,0,0.2740008863763714,0
2025-03-04 10:42:50.906,0.6010746836030618,0,0.6025880965916631,0,0.5935104760091763,0,0.5708591054028604,0,0.5295438139079169,0,0.5675500557736926,0,,0,0.6229018936852497,0,0.5304829297027521,0,0.2742763928951312,0
2025-03-04 10:42:50.974,0.5619484130284511,0,0.5006001645308921,0,0.57250221475751,0,0.5261923312613203,0,0.38116513436917826,0,0.4053671097819039,0,,0,0.3940055121277019,0,0.5192762043690294,0,0.27987597881042475,0
2025-03-04 10:42:51.043,0.5349945978090885,0,0.3878057895966972,0,0.4894593362019715,0,0.5301419686889811,0,0.3588580586325943,0,0.4399607367915054,0,,0,0.5765849410103526,0,0.5048160912623827,0,0.28476839731235043,0
2025-03-04 10:42:51.111,0.49513428056491915,0,0.4927305385106832,0,0.5002176541098718,0,0.46289901484464524,0,0.3702284605592044,0,0.43000989762235375,0,,0,0.5697327476519041,0,0.4631758625066871,0,0.28485614447466673,0
2025-03-04 10:42:51.179,0.4641693541316384,0,0.4640464490279751,0,0.4201864081564912,0,0.45927902154404865,0,0.3525390919287921,0,0.41384890406231994,0,,0,0.46712012620300614,0,0.43262014832124757,0,0.28694095997182234,0
2025-03-04 10:42:51.253,0.4934509272427536,0,0.37838757350102686,0,0.491418107333998,0,0.4568988818931217,0,0.38365373680229886,0,0.483063793287598,0,,0,0.5406336028503702,0,0.40777012146963204,0,0.29813688857475984,0
2025-03-04 10:42:51.317,0.45240529212380787,0,0.446588835215408,0,0.48914013431434006,0,0.44696202229978466,0,0.4016977945561087,0,0.47131212196261657,0,,0,0.5171613364248412,0,0.3995113801232762,0,0.2767463101428171,0
2025-03-04 10:42:51.385,0.4577995074561089,0,0.4469798498159488,0,0.48381385408679517,0,0.44516014459387165,0,0.41726067764353786,0,0.4325362863107288,0,,0,0.5223833994352258,0,0.36728434604012133,0,0.27532452844073413,0
2025-03-04 10:42:51.454,0.44759307218417993,0,0.5059378346100919,0,0.4563169418307013,0,0.45081903007345536,0,0.43990407195828124,0,0.4484141781273252,0,,0,0.5114972373973046,0,0.3776903594793134,0,0.27366875106293337,0
2025-03-04 10:42:51.522,0.5935956632400656,0,0.5062868683392681,0,0.4674742159162519,0,0.4552386527172148,0,0.49303751519849903,0,0.5041268538138488,0,,0,0.5013965582042548,0,0.42602989780200545,0,0.28109777426837174,0
2025-03-04 10:42:51.591,0.6382777945674524,0,0.5119778673673702,0,0.5078553583650462,0,0.5204070327073403,0,0.5277607158562764,0,0.5078282864661334,0,,0,0.5734489493957531,0,0.47486202443713815,0,0.3049612358774464,0
2025-03-04 10:42:51.661,0.6525797526850928,0,0.5183013934251348,0,0.5617316546503519,0,0.5540774334164397,0,0.5440711044887161,0,0.5392032493188615,0,,0,0.43476646042707284,0,0.5298641658247382,0,0.3475226620489534,0
2025-03-04 10:42:51.729,0.5936963846080049,0,0.528931083080151,0,0.6104755579839818,0,0.5776780856792387,0,0.5235064809767718,0,0.6112041130078113,0,,0,0.7024847323604105,0,0.58627630476424,0,0.4709338575548394,0
2025-03-04 10:42:51.803,0.6023687922450504,0,0.5357808855724857,0,0.616478538079802,0,0.5155931397332884,0,0.47759649538320226,0,0.6350450019108206,0,,0,0.6906045581807041,0,0.5704339482170129,0,0.5996888197893638,0
2025-03-04 10:42:51.866,0.5656413218233287,0,0.5361006400856378,0,0.5520598865111692,0,0.5479070420210506,0,0.4415038166744127,0,0.5239226655957865,0,,0,0.6067877770089707,0,0.524846079221843,0,0.6109824945820517,0
2025-03-04 10:42:51.934,0.5514510124517596,0,0.5606935208665678,0,0.5579454466986401,0,0.5442724982565829,0,0.417445354423168,0,0.5109506089639987,0,,0,0.5899027301711978,0,0.5053627824477693,0,0.6172416708965903,0
2025-03-04 10:42:52.004,0.5392517580677699,0,0.4933769968801515,0,0.49459325748635113,0,0.509903331865205,0,0.43558990331609,0,0.5097780365581841,0,,0,0.5471819196766855,0,0.4895256343050705,0,0.6309149787959818,0
2025-03-04 10:42:52.072,0.562887913419269,0,0.4146346207507411,0,0.4801721028954408,0,0.44438507370426417,0,0.45711352170702074,0,0.4955740131185008,0,,0,0.5965784384938154,0,0.47429309701788575,0,0.5787783251678049,0
2025-03-04 10:42:52.140,0.5914163441890262,0,0.4207443372494346,0,0.4697025311810784,0,0.4294659296364629,0,0.41908975455622444,0,0.4375250306765649,0,,0,0.5481532226598241,0,0.46011099455108984,0,0.5151395059110843,0
2025-03-04 10:42:52.209,0.41718721754988597,0,0.4069916196626772,0,0.47405722124021016,0,0.4616152092151599,0,0.40715828531480897,0,0.41379125527790656,0,,0,0.5180170626592432,0,0.43086925092041534,0,0.46440024205127006,0
2025-03-04 10:42:52.277,0.5730318173793942,0,0.44037335627135826,0,0.4993463252871088,0,0.49048373324732775,0,0.46240579906861323,0,0.4845283562673146,0,,0,0.5774270590511192,0,0.4823507589511869,0,0.4386165071371309,0
2025-03-04 10:42:52.345,0.5686816074898722,0,0.4671894716193712,0,0.52351141945037,0,0.5026696600076235,0,0.4829308496509717,0,0.49131574443989123,0,,0,0.565979912856442,0,0.4837246785326779,0,0.4418844581775344,0
2025-03-04 10:42:52.414,0.5632266621582068,0,0.5408418809316639,0,0.556234340637537,0,0.5441378933791,0,0.5006584820137354,0,0.5312973618442237,0,,0,0.5790754517288473,0,0.5075729939470073,0,0.4505919027913892,0
2025-03-04 10:42:52.482,0.5588271456360046,0,0.5651732176070213,0,0.6107450213209872,0,0.5714038836107639,0,0.5619133101169591,0,0.6154193038885425,0,,0,0.6310428504897211,0,0.5165285155957886,0,0.4851716530389225,0
2025-03-04 10:42:52.553,0.4870615554581047,0,0.553820277239658,0,0.5849025100639398,0,0.4617990404341318,0,0.5860157304914623,0,0.617884790525255,0,,0,0.6446534256671016,0,0.44393573619256843,0,0.508400934716854,0
2025-03-04 10:42:52.619,0.551926750904455,0,0.5677326956669262,0,0.6334108090238257,0,0.6027075781690997,0,0.5394487794715526,0,0.5598275416684023,0,,0,0.6419179478963148,0,0.4549417464546874,0,0.5089276187202691,0
2025-03-04 10:42:52.687,0.5460042352075679,0,0.5508816595154188,0,0.6081554413805164,0,0.5186763431440695,0,0.5357390134954898,0,0.5075354777337757,0,,0,0.6308720307064768,0,0.48262769313077447,0,0.5108909629628935,0
2025-03-04 10:42:52.756,0.5325246141474832,0,0.5103689398605019,0,0.5615929236594183,0,0.4797422818828515,0,0.5043504238266135,0,0.5026218418679158,0,,0,0.5656129963041504,0,0.47610542681665974,0,0.5182984686617821,0
2025-03-04 10:42:52.824,0.529767800966317,0,0.49011500276161046,0,0.5203549985570755,0,0.5261630417060456,0,0.45706338875217095,0,0.4701292479240757,0,,0,0.5499188120113114,0,0.4658461523076628,0,0.5326796262258083,0
2025-03-04 10:42:52.892,0.5727155467956043,0,0.44341735417804484,0,0.4918752639565957,0,0.6066802016865742,0,0.4208834751754799,0,0.44477369499896957,0,,0,0.5488733770955919,0,0.4380757469340222,0,0.5503210396910385,0
2025-03-04 10:42:52.961,0.5639173242509399,0,0.4180136785506868,0,0.4626254369582915,0,0.5013607055592629,0,0.4217820864498699,0,0.4348322240906269,0,,0,0.5132088054544924,0,0.4715584649277216,0,0.5296518524679675,0
2025-03-04 10:42:53.029,0.5590226602436885,0,0.4866261291130529,0,0.4760961573693096,0,0.5181902066595501,0,0.46477438448756664,0,0.5042174124541973,0,,0,0.5074418209551486,0,0.48863134605903463,0,0.4925983688470761,0
2025-03-04 10:42:53.103,0.5388066890616413,0,0.4547023108258303,0,0.4221207371175386,0,0.5083926529346287,0,0.47299107140395596,0,0.47130529842659113,0,,0,0.586372826007421,0,0.5088234670024769,0,0.46920664343748775,0
2025-03-04 10:42:53.166,0.5244068918809439,0,0.4469932235083531,0,0.47212748347662026,0,0.5075646117989427,0,0.4847911008202781,0,0.49691699586384636,0,,0,0.6101906175201341,0,0.5029438434603862,0,0.4436496408190298,0
2025-03-04 10:42:53.234,0.5302769833572298,0,0.4255386177087014,0,0.48703112122408965,0,0.48112441458693683,0,0.5095894185697095,0,0.5578962409367099,0,,0,0.6271113909204944,0,0.45381784786185697,0,0.3644908443070569,0
2025-03-04 10:42:53.303,0.5414941223213156,0,0.41073633632823203,0,0.4251545721548323,0,0.4589734919007545,0,0.446885101637606,0,0.44677490431879247,0,,0,0.40967018882283235,0,0.5224917595578471,0,0.4097904475492302,0
2025-03-04 10:42:53.371,0.5401697766003248,0,0.43493713503666687,0,0.4769266770787677,0,0.4270837667919507,0,0.44987543759465665,0,0.47377485559117877,0,,0,0.5930376699604254,0,0.5194637410919927,0,0.45442338359542417,0
2025-03-04 10:42:53.439,0.5333741101800658,0,0.4839903944835721,0,0.4777750644150082,0,0.47840571508311536,0,0.4538181599350238,0,0.44685028644698954,0,,0,0.4489750051254634,0,0.5109219652055225,0,0.47996357699339254,0
2025-03-04 10:42:53.509,0.5563824854838204,0,0.5050796922556178,0,0.6464824591207123,0,0.5913472048878824,0,0.4429627061446655,0,0.44804110426752736,0,,0,0.4615566158292778,0,0.4932326350489137,0,0.4872653347174409,0
2025-03-04 10:42:53.578,0.564232673181428,0,0.5390436002426298,0,0.5685431506117856,0,0.5586615573907734,0,0.4553607008427861,0,0.5717801216312776,0,,0,0.7234904721430853,0,0.45445834158039694,0,0.48514229077028476,0
2025-03-04 10:42:53.653,0.5926589345909354,0,0.5448045317069843,0,0.5631109863612077,0,0.5440115588011352,0,0.42487703239559077,0,0.5158862248287247,0,,0,0.646424779720672,0,0.42015311304059644,0,0.4891001962415738,0
2025-03-04 10:42:53.714,0.5867388938559969,0,0.5210415124385454,0,0.5299230290156094,0,0.488969660327779,0,0.4998971155634389,0,0.4910495972829285,0,,0,0.6261787395595175,0,0.5024846606017893,0,0.5056818647275216,0
2025-03-04 10:42:53.783,0.573220036119705,0,0.49899056590561663,0,0.49268176325252905,0,0.43076418545182216,0,0.5054320770604698,0,0.5415408417545866,0,,0,0.6595889024813932,0,0.4775387671494583,0,0.5042957022325071,0
2025-03-04 10:42:53.853,0.5407214190333736,0,0.47155085779008865,0,0.5235056021124734,0,0.4853239027023707,0,0.5197825186779284,0,0.5177186026192013,0,,0,0.46786782879365013,0,0.4536755652502259,0,0.47315332060495824,0
2025-03-04 10:42:53.920,0.5612428813484566,0,0.500490257163174,0,0.5377433987669161,0,0.513024641244115,0,0.5172267679044602,0,0.5305922641339457,0,,0,0.6326281054190178,0,0.4937359997142258,0,0.44468796918847037,0
2025-03-04 10:42:53.989,0.5666971834855832,0,0.5179070169557396,0,0.42527853110908986,0,0.5807232468071171,0,0.48456315601841315,0,0.5454010500226892,0,,0,0.6235167751411753,0,0.5304077101385667,0,0.4150339589907878,0
2025-03-04 10:42:54.058,0.5866182876627262,0,0.5421962025180418,0,0.4635931772023013,0,0.5547809664538034,0,0.4387686050362141,0,0.4542682228676224,0,,0,0.42008671247814544,0,0.5028267708337835,0,0.391382966961082,0
2025-03-04 10:42:54.127,0.5827460399077321,0,0.5254546740113325,0,0.41369581035172215,0,0.4880345343863469,0,0.44500092472582276,0,0.5528216839209659,0,,0,0.5655326274065396,0,0.5079956227516422,0,0.39142203211283816,0
2025-03-04 10:42:54.195,0.5782488636053841,0,0.5859127289346491,0,0.4661435562025234,0,0.5632450561065396,0,0.4544373285800746,0,0.5100433356652535,0,,0,0.5330547480555461,0,0.47218642144421064,0,0.43064286524584855,0
2025-03-04 10:42:54.263,0.5648466208401685,0,0.582091983468196,0,0.5365951477907523,0,0.5711117349789117,0,0.4774127931409268,0,0.5287296302618321,0,,0,0.538068213448012,0,0.44170817742557683,0,0.4788248581605895,0
2025-03-04 10:42:54.332,0.540844872895087,0,0.5459608174667554,0,0.48876934868891336,0,0.5339087021930097,0,0.4630743422443398,0,0.5044238259216695,0,,0,0.5332790718717437,0,0.41360268112925497,0,0.5238785088533303,0
2025-03-04 10:42:54.402,0.5221824140136078,0,0.5094928333376296,0,0.4760743410287473,0,0.4800009925604686,0,0.4932914793136057,0,0.4925875100838933,0,,0,0.5086317866354932,0,0.441837222678902,0,0.5725136608272384,0
2025-03-04 10:42:54.468,0.65317541038666,0,0.540076388945002,0,0.6229206033157898,0,0.5834306642366263,0,0.4697838868443683,0,0.45266689515397074,0,,0,0.4983074054624712,0,0.44770228789408084,0,0.5939150197792319,0
2025-03-04 10:42:54.537,0.5647956357736016,0,0.46705721610529144,0,0.481453956363587,0,0.514885961245265,0,0.49921103277730267,0,0.4510065350363659,0,,0,0.4565041968503843,0,0.4268680686093376,0,0.5716345584444387,0
2025-03-04 10:42:54.605,0.5924103190544177,0,0.4302980276057846,0,0.4792497696946927,0,0.5162870207808639,0,0.4191398537140468,0,0.46564548459155863,0,,0,0.4319173610183224,0,0.47175541434313567,0,0.5859168062486163,0
2025-03-04 10:42:54.673,0.4735056539294852,0,0.4702361141155088,0,0.4940665210955386,0,0.45568116562932925,0,0.45155494085440295,0,0.5159622158292462,0,,0,0.5753103918003245,0,0.45578890685742696,0,0.53889085183478,0
2025-03-04 10:42:54.742,0.37248605342252333,0,0.4836043461621913,0,0.4736876528297309,0,0.4506980040852755,0,0.3957250183754564,0,0.41641289668827225,0,,0,0.5243512075665638,0,0.41890185929695745,0,0.47104448098404933,0
2025-03-04 10:42:54.810,0.5170264321773935,0,0.4868157706099288,0,0.5102832750210118,0,0.44122189491068403,0,0.4289631023535296,0,0.48631084510976136,0,,0,0.6108655279565033,0,0.47167151959059755,0,0.5163189295321797,0
2025-03-04 10:42:54.878,0.41300076412025805,0,0.49664021457080887,0,0.5155586920421,0,0.4299996513345225,0,0.45203998389531386,0,0.5115813974697642,0,,0,0.6332482545060748,0,0.4561164239704376,0,0.5333259531241846,0
2025-03-04 10:42:54.954,0.5055924030423842,0,0.4914604298550923,0,0.4953739306586763,0,0.4399362714001956,0,0.45627736367415034,0,0.5142851479468579,0,,0,0.6045158532527163,0,0.4462590850201683,0,0.5191192962011303,0
2025-03-04 10:42:55.016,0.5143643662259196,0,0.43104869370488647,0,0.4661858380826278,0,0.4396074761912149,0,0.4504412268400941,0,0.5072327382903915,0,,0,0.5651321085829525,0,0.495372166780339,0,0.4874753687394661,0
2025-03-04 10:42:55.085,0.5025569486052015,0,0.46074156593993487,0,0.47838515837674755,0,0.4348224198036768,0,0.4118705703143843,0,0.4731089434864472,0,,0,0.5560800144404271,0,0.46162111646237514,0,0.4797475629365216,0
2025-03-04 10:42:55.153,0.491334716199965,0,0.46121902838977824,0,0.4338255175670543,0,0.43258104480723214,0,0.47006621211847355,0,0.44236155040115627,0,,0,0.48385219716857525,0,0.43296731652775383,0,0.515983202948224,0
2025-03-04 10:42:55.221,0.5622835761643504,0,0.46016680265297444,0,0.40171340880610135,0,0.4223869506194875,0,0.48372749901040335,0,0.46139338446037437,0,,0,0.47894554660175864,0,0.45888850854253654,0,0.4797375138005174,0
2025-03-04 10:42:55.291,0.47748361261395134,0,0.47440941574620504,0,0.37974276014254255,0,0.4364892824691479,0,0.4611117456794661,0,0.45500980537244445,0,,0,0.5513248618778002,0,0.45947168972450814,0,0.47148962270653627,0
2025-03-04 10:42:55.359,0.5274689691306108,0,0.4589516113694132,0,0.4336553445500125,0,0.42421305644372753,0,0.41814020625571574,0,0.4851964467428336,0,,0,0.5527637131639861,0,0.4697393295854458,0,0.47739313430099317,0
2025-03-04 10:42:55.427,0.43148290445779414,0,0.4053104845654789,0,0.4329575146060677,0,0.44977601301734743,0,0.4731246332957613,0,0.5207556573788648,0,,0,0.5468251925793027,0,0.5065001637043761,0,0.47348791979037425,0
2025-03-04 10:42:55.502,0.4921208611026695,0,0.487382770707375,0,0.4334341484628951,0,0.39551806289577013,0,0.47365938031196064,0,0.5290419865222882,0,,0,0.5743604520985666,0,0.4956134230525735,0,0.4433240079434916,0
2025-03-04 10:42:55.564,0.49322204845168516,0,0.4912481434438701,0,0.4642956579589771,0,0.4556153422337972,0,0.49475241987739765,0,0.5330648519447145,0,,0,0.6311334573277595,0,0.48883451860502863,0,0.42795910902767836,0
2025-03-04 10:42:55.632,0.5428852959265253,0,0.4778811421873203,0,0.4854826217358585,0,0.46689580093293503,0,0.48938872908434405,0,0.5386065917591754,0,,0,0.6088125110619577,0,0.4573738094207498,0,0.43236267923403143,0
2025-03-04 10:42:55.703,0.5171499375173791,0,0.4439473082244963,0,0.5088423235644991,0,0.47040709343565135,0,0.45701730096434057,0,0.5099614956916633,0,,0,0.522223406611897,0,0.4230181858744438,0,0.4516918260595879,0
2025-03-04 10:42:55.769,0.49922721311101836,0,0.40093556521793755,0,0.545172845148061,0,0.46652741220475846,0,0.4206170668221237,0,0.4670687335771049,0,,0,0.5158742448718819,0,0.4190059318214706,0,0.47661909523262314,0
2025-03-04 10:42:55.837,0.4467919877303762,0,0.43616380720226994,0,0.5874989606089362,0,0.5082255423487201,0,0.4803333859307846,0,0.506319151600208,0,,0,0.493089971814063,0,0.45194166052417584,0,0.49926813152236615,0
2025-03-04 10:42:55.906,0.4719037842655886,0,0.41952144133683705,0,0.5809794563874794,0,0.5220641544477996,0,0.48449251276044264,0,0.5063745818452791,0,,0,0.5072122504388761,0,0.43532176914071885,0,0.4846773933289939,0
2025-03-04 10:42:55.974,0.42283502349929375,0,0.4607291453516105,0,0.6227309410665763,0,0.543901600456038,0,0.5104916630524698,0,0.5171355816206697,0,,0,0.526033597005625,0,0.45362508449634104,0,0.4872017307681124,0
2025-03-04 10:42:56.043,0.4631273256741557,0,0.4682392376594611,0,0.6260388788693853,0,0.5471515091360545,0,0.5268198996484662,0,0.548584681739269,0,,0,0.5567292526598344,0,0.48606341553001614,0,0.517218308551622,0
2025-03-04 10:42:56.111,0.4919270111297608,0,0.47242348742293544,0,0.6398805754835221,0,0.5579359569411052,0,0.5497486121687984,0,0.5701184285341905,0,,0,0.5867429619333605,0,0.4937057619412547,0,0.4793097645802325,0
2025-03-04 10:42:56.179,0.5481983952535123,0,0.4714558362478376,0,0.6515246848576592,0,0.5736213478818694,0,0.5591915289333935,0,0.5737986583184885,0,,0,0.6245853095913668,0,0.48475158683233954,0,0.4976733609092589,0
2025-03-04 10:42:56.253,0.620624289313264,0,0.37895082984404005,0,0.5265705628293298,0,0.5763159258095293,0,0.5487870126358478,0,0.524824282494627,0,,0,0.530094772444385,0,0.42979694052774653,0,0.5386383242342648,0
2025-03-04 10:42:56.316,0.5899629318091563,0,0.410828639656434,0,0.5534580209326595,0,0.5364314408519715,0,0.448635237833764,0,0.568035955698157,0,,0,0.588953917533032,0,0.4536913184946726,0,0.536716525121977,0
2025-03-04 10:42:56.384,0.5480396623696119,0,0.49362921746934846,0,0.48798604943223645,0,0.4988825453630474,0,0.40057271519228943,0,0.4480462522765041,0,,0,0.5772237204176838,0,0.44909833733107896,0,0.5254911213827642,0
2025-03-04 10:42:56.453,0.467462661862245,0,0.43720724472626726,0,0.4907283679942345,0,0.49884844988871213,0,0.4260811067320409,0,0.47630544507318884,0,,0,0.5904567192698341,0,0.4562511519697472,0,0.5195797223791289,0
2025-03-04 10:42:56.521,0.5138496470183201,0,0.508138799744121,0,0.4996545870572264,0,0.478644364247501,0,0.433737443802465,0,0.48325780694729326,0,,0,0.572812253367599,0,0.47259984995194043,0,0.5277859253096915,0
2025-03-04 10:42:56.589,0.47658858525024667,0,0.4962058550992055,0,0.5436004484342881,0,0.5383743750635217,0,0.45219952586166656,0,0.5294079338322423,0,,0,0.5655351599533375,0,0.45773282433808343,0,0.5455273628042893,0
2025-03-04 10:42:56.659,0.5609473610558054,0,0.4917298710640515,0,0.5730381791937565,0,0.5567490040346833,0,0.46798747081767683,0,0.5331988862913314,0,,0,0.5886217909107254,0,0.4551924897919898,0,0.5644891839743186,0
2025-03-04 10:42:56.727,0.463350290815581,0,0.49991651920016583,0,0.5456413516875589,0,0.5374449677120041,0,0.4766487584268107,0,0.537619157404537,0,,0,0.5946128326359735,0,0.5111843913926704,0,0.5735764819953195,0
2025-03-04 10:42:56.796,0.45183493392542606,0,0.5301530126536139,0,0.5779714009408641,0,0.5699400357244011,0,0.5023439873215989,0,0.5588232161490356,0,,0,0.6064403526967904,0,0.5422042652340932,0,0.5607501919460463,0
2025-03-04 10:42:56.865,0.5185667572214533,0,0.5657151999749712,0,0.608025056066456,0,0.5914726029991424,0,0.5396538885555954,0,0.586739186121077,0,,0,0.5920592736918661,0,0.5889082812639954,0,0.5275439804165915,0
2025-03-04 10:42:56.933,0.518930540358799,0,0.5907516116181674,0,0.6331987675829781,0,0.6174284249238432,0,0.5667017270169885,0,0.6017685683989955,0,,0,0.5972935936459555,0,0.55245540874117,0,0.49026307809279135,0
2025-03-04 10:42:57.002,0.5322115419614939,0,0.5915640791897258,0,0.6242437489479535,0,0.6136189037139419,0,0.5779810484788217,0,0.6038641215271898,0,,0,0.6122439695568472,0,0.5298557842968508,0,0.4659757047889702,0
2025-03-04 10:42:57.071,0.5208018746031673,0,0.5180435698371787,0,0.6035313431562215,0,0.5990340332281628,0,0.5531345394352369,0,0.589612440105474,0,,0,0.6435743547560675,0,0.49118869459989634,0,0.46850468493233055,0
2025-03-04 10:42:57.139,0.5880812470255214,0,0.48401645564521245,0,0.5654535587561982,0,0.5648786622198193,0,0.5020990899541705,0,0.589045033376715,0,,0,0.6658946062034207,0,0.497088188147968,0,0.5079760021085998,0
2025-03-04 10:42:57.207,0.45307483306124346,0,0.34303397705968436,0,0.4791311046591599,0,0.4930991806976723,0,0.47554245072774287,0,0.5420761579327958,0,,0,0.6702732309692077,0,0.4657702956235183,0,0.5421362527870153,0
2025-03-04 10:42:57.276,0.5083719208618279,0,0.36564502026374873,0,0.4876908238242068,0,0.46307258264022727,0,0.4524190475254679,0,0.5277856371476021,0,,0,0.6531182265153436,0,0.4298639536503973,0,0.5065849166919575,0
2025-03-04 10:42:57.344,0.48714717448096095,0,0.4257953856486687,0,0.48086833226563397,0,0.4620709751386374,0,0.4273908614055697,0,0.46368602930962133,0,,0,0.6142693611268752,0,0.4181084091053068,0,0.49435245713349374,0
2025-03-04 10:42:57.413,0.5022255158662,0,0.34885956051645023,0,0.4562301261495556,0,0.43651407757365357,0,0.418631926913144,0,0.4677776521181442,0,,0,0.5822948975824974,0,0.38746150771633275,0,0.487643467812375,0
2025-03-04 10:42:57.481,0.40853054011612877,0,0.3869741595408239,0,0.45433105184666106,0,0.4306274971020792,0,0.40531580644815657,0,0.4592190932185241,0,,0,0.5592540044756734,0,0.381844350930944,0,0.4849663905419697,0
2025-03-04 10:42:57.553,0.4707940282629015,0,0.3921937494807517,0,0.4760246088500225,0,0.43152827064359794,0,0.38978312193158665,0,0.4642396744380976,0,,0,0.5619341982220556,0,0.39463952091997706,0,0.4816984178174156,0
2025-03-04 10:42:57.618,0.4560191742947324,0,0.5326549444249297,0,0.4906663530264726,0,0.4663095345369035,0,0.4084212673983399,0,0.4890948077726142,0,,0,0.5935689612755084,0,0.4516008444984764,0,0.47745036798717916,0
2025-03-04 10:42:57.686,0.5530946943053004,0,0.5174142504357424,0,0.5318756073725991,0,0.5071113278448942,0,0.4571447380162293,0,0.5189848532234457,0,,0,0.6265027396325102,0,0.4982311591136803,0,0.4727314768851778,0
2025-03-04 10:42:57.754,0.5134288537550571,0,0.48047462762529447,0,0.5557323852676888,0,0.5274071286108297,0,0.5150411645238916,0,0.5514551715806066,0,,0,0.6465082672669266,0,0.5292876859167307,0,0.46414082004995116,0
2025-03-04 10:42:57.823,0.5370869923330894,0,0.5863004585902957,0,0.5871121606854739,0,0.5518087531614153,0,0.5360372433614724,0,0.5682562887006205,0,,0,0.6383152927419524,0,0.4980339128841408,0,0.4530393126912356,0
2025-03-04 10:42:57.891,0.5209879959736756,0,0.562671047236405,0,0.5713654680242061,0,0.5514393759977699,0,0.5164139376938972,0,0.5488857601522513,0,,0,0.6170831674338951,0,0.4487685170364477,0,0.4437699213286036,0
2025-03-04 10:42:57.959,0.5660292886968676,0,0.4903933816366421,0,0.5610670637861213,0,0.5380772558369438,0,0.4681179148308127,0,0.5222929401653075,0,,0,0.5976519217584454,0,0.43539163584632434,0,0.43816737941297895,0
2025-03-04 10:42:58.028,0.46054093896521137,0,0.4735499270632219,0,0.5061011832425738,0,0.5036520777302435,0,0.45502342916084004,0,0.5053630864140677,0,,0,0.5896751009287573,0,0.4364802841349896,0,0.43246740939484024,0
2025-03-04 10:42:58.103,0.43047768066264197,0,0.4529884733737885,0,0.5134034904886161,0,0.4878971043618306,0,0.4411176108428655,0,0.4291761504935253,0,,0,0.4802326008494695,0,0.37819858324846384,0,0.42336782120999994,0
2025-03-04 10:42:58.165,0.4581973711080526,0,0.45543401944273004,0,0.4959710956958249,0,0.4822823849202361,0,0.42203365859143854,0,0.4577838876751988,0,,0,0.590951447667466,0,0.45418032562096883,0,0.4092663953775035,0
2025-03-04 10:42:58.233,0.46051909510080036,0,0.45177387741661545,0,0.4950915139197399,0,0.46818819507454745,0,0.3958512079440788,0,0.4140692461147729,0,,0,0.5150844973309113,0,0.42032380209964026,0,0.3851873824052353,0
2025-03-04 10:42:58.303,0.5328281355362586,0,0.48016811348997984,0,0.4885201884000626,0,0.462386357640906,0,0.3826831830398121,0,0.4168268089457011,0,,0,0.5694764626046203,0,0.3875176095012221,0,0.35461282156246265,0
2025-03-04 10:42:58.370,0.5180258838441266,0,0.46884480785062976,0,0.48403091733522036,0,0.4503639899850501,0,0.37284847226742646,0,0.425185331255344,0,,0,0.5536851894492254,0,0.3972816477118819,0,0.3289695564241344,0
2025-03-04 10:42:58.438,0.5118357703098498,0,0.3976611044501144,0,0.4495017889695808,0,0.4388141691531665,0,0.385039175119022,0,0.4335873403385946,0,,0,0.5484314386299683,0,0.41040783176420903,0,0.3184056256433674,0
2025-03-04 10:42:58.506,0.4473327594870764,0,0.4279783364375225,0,0.4608373111284881,0,0.4385798498963457,0,0.4233291284608478,0,0.4781975775943387,0,,0,0.542936956111306,0,0.4467537289143987,0,0.32799261650909295,0
2025-03-04 10:42:58.575,0.4583197142830249,0,0.41679672538270723,0,0.5032638695387407,0,0.4696798325238267,0,0.4762845445142038,0,0.49650732992519236,0,,0,0.5512396129174091,0,0.48568708481221207,0,0.35529607204035324,0
2025-03-04 10:42:58.653,0.474773047956658,0,0.5076242801592951,0,0.5315171014697294,0,0.5201082631783572,0,0.5195365704237946,0,0.5263342695903914,0,,0,0.5503213671923914,0,0.50954592329914,0,0.38989431110212686,0
2025-03-04 10:42:58.712,0.5315802149029887,0,0.5911952127486103,0,0.5870989144047636,0,0.5716740885597876,0,0.5442976846623712,0,0.5660541424595522,0,,0,0.5487193514395893,0,0.5136945415863141,0,0.4157997652798167,0
2025-03-04 10:42:58.780,0.5694794587234694,0,0.6180782559274822,0,0.6115471522171319,0,0.5895082695060997,0,0.5327527321567829,0,0.5693272735711276,0,,0,0.5645670541414449,0,0.505048718037713,0,0.43951172661234067,0
2025-03-04 10:42:58.853,0.592778219869228,0,0.5278000825613839,0,0.5843135256629521,0,0.5742432094071653,0,0.5089785930450811,0,0.5627480065913273,0,,0,0.5877728320893078,0,0.49012739445728043,0,0.4613467221331497,0
2025-03-04 10:42:58.916,0.596503557113014,0,0.47481831550467507,0,0.5477493170281587,0,0.5434001094777934,0,0.4921714277213917,0,0.5482261123631448,0,,0,0.5863261436535729,0,0.45461673561575655,0,0.476479234926185,0
2025-03-04 10:42:58.985,0.5503908196975169,0,0.4995520588009672,0,0.5595774255645176,0,0.5378920200151464,0,0.467656000792142,0,0.5273651138025027,0,,0,0.5710647988213702,0,0.45835186110632165,0,0.48737581432106275,0
2025-03-04 10:42:59.054,0.5463164103279108,0,0.42535504419681436,0,0.5338662786519855,0,0.5053791623100687,0,0.4526647257041894,0,0.5001973887957022,0,,0,0.5020952667743791,0,0.3351697243389443,0,0.4861656919549087,0
2025-03-04 10:42:59.123,0.5400341686502198,0,0.4201252048688423,0,0.5321128309743995,0,0.48829087416512845,0,0.43830487434828036,0,0.480200401677333,0,,0,0.5622309626690359,0,0.43279966600178904,0,0.47393394369608094,0
2025-03-04 10:42:59.191,0.49961825791253345,0,0.42387902236269376,0,0.5149686558430381,0,0.46537277565104657,0,0.42797594539582456,0,0.4636353216861186,0,,0,0.5420298077626647,0,0.4588006061936784,0,0.45795866144946384,0
2025-03-04 10:42:59.260,0.5406876048921597,0,0.409174420857169,0,0.4920587125812577,0,0.457264642321351,0,0.4205144741827772,0,0.45393808723458534,0,,0,0.5494866638848328,0,0.4006055699637672,0,0.4449152157554344,0
2025-03-04 10:42:59.329,0.47581535161933275,0,0.42899871989604665,0,0.4716200341630152,0,0.4488318340186536,0,0.41712733243431055,0,0.4486765705469435,0,,0,0.5364632713889312,0,0.4062423274881491,0,0.44391381343609726,0
2025-03-04 10:42:59.402,0.45795402221945924,0,0.46765981054059474,0,0.49509475585459484,0,0.4619030949543307,0,0.4233210384387511,0,0.47414033764175584,0,,0,0.5760597565239015,0,0.4306603671083329,0,0.45110321094678374,0
2025-03-04 10:42:59.465,0.47132698190415356,0,0.5098417414485126,0,0.5167188746645106,0,0.49170008649634506,0,0.45640214670494506,0,0.5149817076454677,0,,0,0.6012585449744858,0,0.4801990758425206,0,0.46470913785211987,0
2025-03-04 10:42:59.534,0.501249215726218,0,0.5065188113886624,0,0.5421289628686634,0,0.5184410186238609,0,0.48831385327788834,0,0.5592748977153046,0,,0,0.6434577134547571,0,0.5215525259477456,0,0.47789762887871373,0
2025-03-04 10:42:59.603,0.5131946161192998,0,0.5651703737485183,0,0.561777074412939,0,0.5435916665760341,0,0.5144686069931294,0,0.5863468208309744,0,,0,0.6700328787662028,0,0.5374611819618546,0,0.4879803083807348,0
2025-03-04 10:42:59.670,0.5307115914901722,0,0.4794497474356044,0,0.5673845616828211,0,0.5568246259231446,0,0.5205661174382802,0,0.5913272872411325,0,,0,0.6527501163359076,0,0.5200888613018848,0,0.4963129842844267,0
2025-03-04 10:42:59.740,0.4779566175623208,0,0.48117110532783736,0,0.562820496075784,0,0.5473924376904367,0,0.5088016814156916,0,0.5749768056585449,0,,0,0.626927007213866,0,0.5002627179602064,0,0.5039435049193686,0
2025-03-04 10:42:59.808,0.46625686443607695,0,0.48957740207825773,0,0.5578291742949372,0,0.5385004642803342,0,0.4916086626017181,0,0.5564830253711047,0,,0,0.5979156683647422,0,0.4801757777693894,0,0.5093998926327363,0
2025-03-04 10:42:59.877,0.4305353809629525,0,0.472976889374238,0,0.5503653747270526,0,0.5325281426940772,0,0.4764059547585975,0,0.5382330137718855,0,,0,0.5912056291037349,0,0.41314792955406937,0,0.5089151344462762,0
2025-03-04 10:42:59.946,0.37035587269292375,0,0.48042048756660266,0,0.5348117986882697,0,0.5252152606728675,0,0.46131686656874665,0,0.5212666099650259,0,,0,0.5794504561848296,0,0.44767818369065376,0,0.49926870429708664,0
2025-03-04 10:43:00.014,0.3965423983301155,0,0.4644963263737685,0,0.5194262858092691,0,0.5147444771762996,0,0.4509118184530552,0,0.49141795205344435,0,,0,0.5655106755040041,0,0.4305495529977398,0,0.48082029019353967,0
2025-03-04 10:43:00.082,0.46852882642357246,0,0.4635297000444581,0,0.5075433116192755,0,0.49912639864558006,0,0.43618982056144606,0,0.4799436572488524,0,,0,0.5671266566610708,0,0.41529421954721896,0,0.45764670593356394,0
2025-03-04 10:43:00.152,0.4685073917015317,0,0.4622035418760896,0,0.5012168236740129,0,0.48618284160313363,0,0.4249379389338687,0,0.4708883423449337,0,,0,0.5617998151870717,0,0.4051285860572834,0,0.43642882991022397,0
2025-03-04 10:43:00.219,0.4274891341318265,0,0.45079472915703284,0,0.4986621280159061,0,0.4774682725400303,0,0.41558351838410423,0,0.45793660635139255,0,,0,0.5539775542388605,0,0.4028575165746249,0,0.4233934666702792,0
2025-03-04 10:43:00.288,0.461913499815526,0,0.441474787243195,0,0.4992875024257022,0,0.47432634898597775,0,0.42201973566494466,0,0.4703775085409904,0,,0,0.5658048962702301,0,0.42596598029419525,0,0.41912549538905025,0
2025-03-04 10:43:00.356,0.4800567238084323,0,0.43970258221950714,0,0.507345822335767,0,0.48116284906616813,0,0.4395178775339259,0,0.49852786202201665,0,,0,0.5885716337344924,0,0.4706960766220923,0,0.4231775227766898,0
2025-03-04 10:43:00.424,0.4982969111943768,0,0.44473721852951376,0,0.522219175324689,0,0.49669196621571343,0,0.46238177523667334,0,0.5254269927762438,0,,0,0.6121587527401373,0,0.5186652941862915,0,0.4308551907622714,0
2025-03-04 10:43:00.493,0.5023678089396112,0,0.4475406165667837,0,0.540330125202196,0,0.5134649810312125,0,0.48068392499378104,0,0.557911167250874,0,,0,0.6280725976192547,0,0.5298153844450627,0,0.4387215745716081,0
2025-03-04 10:43:00.561,0.48137989800698705,0,0.43648416460786205,0,0.551244803653548,0,0.5194253955127973,0,0.48702146411197733,0,0.5613481266015549,0,,0,0.6332743056161745,0,0.5124644226353964,0,0.4453809762548468,0
2025-03-04 10:43:00.629,0.4404520391277006,0,0.4251246811361846,0,0.5469937727669005,0,0.5114794196888246,0,0.4861514715721404,0,0.5582582456274731,0,,0,0.6214413949596933,0,0.46554840717435453,0,0.4517243040040739,0
2025-03-04 10:43:00.703,0.3897535842388013,0,0.40588940050984446,0,0.5313510069864391,0,0.49907274025936554,0,0.48556920763685335,0,0.5439092348432571,0,,0,0.6051182395363499,0,0.46858252884798884,0,0.457645856000999,0
2025-03-04 10:43:00.766,0.36739906140377054,0,0.40777671476123634,0,0.512748433195973,0,0.48688351544500247,0,0.47371090933312526,0,0.5270170396325111,0,,0,0.5868005932593212,0,0.45961135197988967,0,0.45936377536277195,0
2025-03-04 10:43:00.834,0.37756725607208635,0,0.41469527871263334,0,0.49938354042452154,0,0.48310664814809157,0,0.47355897988213874,0,0.5188562343017432,0,,0,0.5872132200224407,0,0.45778328349653297,0,0.4540435681449005,0
2025-03-04 10:43:00.903,0.3895523944556688,0,0.4363062512488688,0,0.4904795816725159,0,0.48212971402013116,0,0.4679426122870799,0,0.5087322960364152,0,,0,0.5889102798437118,0,0.4399806666900061,0,0.43951707267695284,0
2025-03-04 10:43:00.971,0.4102492149062448,0,0.4240140360198187,0,0.4832895587887325,0,0.478817739363884,0,0.4520373314488643,0,0.5006428129906982,0,,0,0.5910506430542964,0,0.43959617095158093,0,0.41871745698504154,0
2025-03-04 10:43:01.040,0.41239103450745923,0,0.3988042595037954,0,0.4829473826958389,0,0.4661290384137479,0,0.4420481439801602,0,0.49908875090918187,0,,0,0.6009980317218094,0,0.4313143248123123,0,0.39849629446846874,0
2025-03-04 10:43:01.108,0.4155210863045802,0,0.38397549466583747,0,0.4856299036194051,0,0.4565712948638553,0,0.4365243422536651,0,0.5022231553632772,0,,0,0.6061608850842594,0,0.44930788057164034,0,0.386204625500426,0
2025-03-04 10:43:01.176,0.43574661243009916,0,0.5581835769248347,0,0.4916037588128211,0,0.4614928382567645,0,0.4459770637025052,0,0.5216459794200649,0,,0,0.622958445953179,0,0.47572681902274266,0,0.38570882208153034,0
2025-03-04 10:43:01.244,0.4720104746551301,0,0.43453488177003946,0,0.510919742939837,0,0.4797527012090519,0,0.4674977546500432,0,0.5424055522855411,0,,0,0.6352384102049623,0,0.5154410887708867,0,0.3952347777700052,0
2025-03-04 10:43:01.313,0.5190406214411278,0,0.4746815577696757,0,0.5438921077362453,0,0.508511643021738,0,0.4856830974974025,0,0.5572488801365959,0,,0,0.6202608680968116,0,0.5319077133420733,0,0.4092551530321525,0
2025-03-04 10:43:01.381,0.38670579153700796,0,0.5003505322613532,0,0.5701521340787012,0,0.5253403275502447,0,0.4962794540749233,0,0.5537823179208804,0,,0,0.6119189747413456,0,0.530228959172274,0,0.4227746431496934,0
2025-03-04 10:43:01.453,0.559407972404529,0,0.5078856708002779,0,0.5773776287608301,0,0.534230107821562,0,0.4896446261005062,0,0.53921729538395,0,,0,0.5840035902817107,0,0.49878104940392765,0,0.4352759811466193,0
2025-03-04 10:43:01.518,0.541407784899166,0,0.494762195902141,0,0.5687368429167394,0,0.5241880608118046,0,0.4725385183895415,0,0.5250205926435089,0,,0,0.5712528806615035,0,0.46002911674202285,0,0.4453150861304161,0
2025-03-04 10:43:01.586,0.46539298212939234,0,0.46481036310910134,0,0.5591871472137078,0,0.518743358183975,0,0.461842787826697,0,0.5203448220036246,0,,0,0.5652328311330815,0,0.4474282981315907,0,0.4554772092358401,0
2025-03-04 10:43:01.655,0.5121317172705737,0,0.44842853843238417,0,0.5503555741664473,0,0.5093578197650358,0,0.46115366470877195,0,0.5185517339528408,0,,0,0.557062692765385,0,0.44571843009892664,0,0.46295983690755915,0
2025-03-04 10:43:01.723,0.5118327970225326,0,0.4673113078341497,0,0.555348096338369,0,0.5099972179938834,0,0.45362842314028784,0,0.5082046613942164,0,,0,0.5428027916311076,0,0.43309555600441574,0,0.4651069063295516,0
2025-03-04 10:43:01.792,0.49957100117153536,0,0.456909802708314,0,0.5439512973751297,0,0.4959821538294291,0,0.44138681764502335,0,0.4886673060635866,0,,0,0.5347632121784069,0,0.4303078946818324,0,0.4612715165958994,0
2025-03-04 10:43:01.861,0.4834292253206886,0,0.48388620970287977,0,0.5401177756153408,0,0.48589309083892906,0,0.43212784780534896,0,0.4706031977360423,0,,0,0.5285546083300966,0,0.413660942598673,0,0.45294615191663157,0
2025-03-04 10:43:01.929,0.4427811506174438,0,0.4887657577098853,0,0.522391428177787,0,0.4734780371617858,0,0.4276831121882846,0,0.4727525518061388,0,,0,0.5394705389092538,0,0.42208354527151465,0,0.44363168947173054,0
2025-03-04 10:43:02.002,0.4288922665969063,0,0.46521459186548764,0,0.5127382255964752,0,0.4734443177528107,0,0.43355043570980295,0,0.4852088326452629,0,,0,0.5523721847310357,0,0.4411076394657786,0,0.43785302418499145,0
2025-03-04 10:43:02.066,0.448335475677074,0,0.46230441904663644,0,0.5179864874519894,0,0.49068206130457986,0,0.4576613972838088,0,0.5094187804269703,0,,0,0.5713663166852585,0,0.47877214004385615,0,0.4356367777852282,0
2025-03-04 10:43:02.134,0.47112366857747145,0,0.4332596308618403,0,0.5356768085190134,0,0.5224193204655014,0,0.4812539260185355,0,0.5257501691084877,0,,0,0.5639432107479293,0,0.5034724503398128,0,0.43888379075381345,0
2025-03-04 10:43:02.202,0.4888153401491673,0,0.4506704823076784,0,0.5478865203277977,0,0.5454952751112894,0,0.4856423561958831,0,0.5325839049809006,0,,0,0.5701316666124935,0,0.4978829101258594,0,0.4433426521757853,0
2025-03-04 10:43:02.271,0.5002443740552974,0,0.45622376913495943,0,0.5402244359635182,0,0.5467349080972984,0,0.4812402044289936,0,0.5267797483877339,0,,0,0.5755745693892541,0,0.4725060854379751,0,0.4471769244752364,0
2025-03-04 10:43:02.339,0.4977854965826787,0,0.47989696370930895,0,0.5257963385427494,0,0.5326211386978766,0,0.4738842028375989,0,0.5264211925286478,0,,0,0.587396631322495,0,0.457616066515763,0,0.44958818929588623,0
2025-03-04 10:43:02.408,0.43866381103033325,0,0.500948524810466,0,0.5168086855538808,0,0.5146457616069599,0,0.4686540110344942,0,0.5259742952635009,0,,0,0.5978505567317702,0,0.4526898241422018,0,0.45095757774800777,0
2025-03-04 10:43:02.476,0.4170839735924486,0,0.47994508900073934,0,0.5084354019922783,0,0.49865193953120357,0,0.4646871060108934,0,0.5190366206437443,0,,0,0.5906908845848436,0,0.4460933185494824,0,0.4519743047505416,0
2025-03-04 10:43:02.544,0.4135666332486951,0,0.4386674370509054,0,0.4959010038164442,0,0.4809461873723729,0,0.45604219648111743,0,0.5035576600677073,0,,0,0.5859321205245921,0,0.4329008584864339,0,0.45193209699018555,0
2025-03-04 10:43:02.613,0.43047305097485405,0,0.3895648544123077,0,0.4798319604686415,0,0.4690021113227499,0,0.44735288409767293,0,0.4942137362476443,0,,0,0.5900926260878817,0,0.4183627424214462,0,0.44917518640198906,0
2025-03-04 10:43:02.681,0.40203260588408063,0,0.39633877005386425,0,0.46909211398611733,0,0.4657574434012847,0,0.4396437997791078,0,0.4938199877749271,0,,0,0.6067331589396231,0,0.4138942819165137,0,0.4445053715653629,0
2025-03-04 10:43:02.753,0.444204755336939,0,0.4296486764060848,0,0.47545685403619803,0,0.47178662791232984,0,0.4407629177926269,0,0.504685564488656,0,,0,0.6225346706418978,0,0.43533157891431457,0,0.4376467426715684,0
2025-03-04 10:43:02.819,0.4796034284419733,0,0.4633888318230688,0,0.5041478509188778,0,0.49030411734417495,0,0.4610186672233799,0,0.5353741870722015,0,,0,0.4783938109219064,0,0.36143934840997016,0,0.4319574949259135,0
2025-03-04 10:43:02.888,0.5067333182163568,0,0.47865422934141,0,0.5367049472625846,0,0.5104397335397363,0,0.47752851088906645,0,0.5237927349192693,0,,0,0.48300247581172784,0,0.3887288013105129,0,0.4304688838028483,0
2025-03-04 10:43:02.956,0.5168406917992597,0,0.4817412092081355,0,0.4972717804007939,0,0.5219371884513122,0,0.4845938604456109,0,0.5461888775962777,0,,0,0.59635170274402,0,0.4830975223559733,0,0.43369868735632394,0
2025-03-04 10:43:03.025,0.49811570829997165,0,0.45926106057597493,0,0.5437582614384248,0,0.5201099160066026,0,0.4817004553832089,0,0.5377720830968983,0,,0,0.5834829018566835,0,0.471380012958323,0,0.4393470185224689,0
2025-03-04 10:43:03.093,0.48756849571111216,0,0.45371920878354666,0,0.5344487708619906,0,0.515172977971068,0,0.47580835128245097,0,0.5286276668031032,0,,0,0.5837492217363235,0,0.4608616886349038,0,0.44516160412748096,0
2025-03-04 10:43:03.161,0.4863045365256939,0,0.4552544396533062,0,0.5311557415604807,0,0.5106549102515523,0,0.4654362564620312,0,0.521327206237104,0,,0,0.5987169159605467,0,0.46739859255403904,0,0.45044740382229437,0
2025-03-04 10:43:03.230,0.48960071690642853,0,0.46559615256088255,0,0.5323128404243463,0,0.49681434488251036,0,0.4544258380436556,0,0.5117652871894746,0,,0,0.5969950870501882,0,0.533377806670069,0,0.45570993774877616,0
2025-03-04 10:43:03.303,0.4936403482080956,0,0.5188906817597785,0,0.5285505173207469,0,0.4790273462338959,0,0.4395744871397492,0,0.5053634902483309,0,,0,0.595600615102043,0,0.4997648660146195,0,0.4609260586955787,0
2025-03-04 10:43:03.366,0.48658637206547567,0,0.5001955247348462,0,0.5252147986637847,0,0.5103852248631261,0,0.4248068161378769,0,0.49035305982448935,0,,0,0.5733355395645842,0,0.49086633640928756,0,0.46378502700924495,0
2025-03-04 10:43:03.435,0.4842257725287803,0,0.44340482219533706,0,0.5330911158973409,0,0.4680855062987712,0,0.41961259066932954,0,0.4844638519709283,0,,0,0.5462049317184221,0,0.45073470174151525,0,0.4629861833018301,0
2025-03-04 10:43:03.503,0.43373142306328843,0,0.44082167522585985,0,0.5163840392777465,0,0.48371111665332694,0,0.44003556009025424,0,0.5036911696408228,0,,0,0.5616243226055021,0,0.4699310141163422,0,0.4568583250465431,0
2025-03-04 10:43:03.572,0.4868657276734173,0,0.4459156891213595,0,0.5506867475545996,0,0.5042927828003522,0,0.4580066361056506,0,0.5194407622491094,0,,0,0.5843027972106558,0,0.4772669474081445,0,0.44877547698529424,0
2025-03-04 10:43:03.640,0.4823133027613718,0,0.44398557355106627,0,0.5504846780698927,0,0.5224493009301203,0,0.47609215901884017,0,0.5360273358534227,0,,0,0.6074234840246361,0,0.48508343562868816,0,0.4419399875401632,0
2025-03-04 10:43:03.708,0.48887286288360204,0,0.4371572495594972,0,0.5389652484113919,0,0.5289565617295209,0,0.483045627802403,0,0.5439196681621142,0,,0,0.6069577388194314,0,0.47986151479199524,0,0.43804713430319503,0
2025-03-04 10:43:03.777,0.46315577729074414,0,0.4455726404870687,0,0.5263392165121732,0,0.5274356184350641,0,0.47875420610234215,0,0.5417328767469752,0,,0,0.6027687200253774,0,0.47730432017623153,0,0.43696783645353776,0
2025-03-04 10:43:03.845,0.4505662848632255,0,0.45023949206552966,0,0.5268605113272931,0,0.5122453009757332,0,0.4690286948398333,0,0.5320251561966187,0,,0,0.6058940377498937,0,0.4813948150869939,0,0.43771296821756384,0
2025-03-04 10:43:03.914,0.4629979576710344,0,0.46863740014626915,0,0.5286038074402718,0,0.5012103559520508,0,0.46158020532447375,0,0.5233147793719392,0,,0,0.5930998405328536,0,0.474622765722766,0,0.43971274423275847,0
2025-03-04 10:43:03.982,0.5331566745548034,0,0.46776763726790804,0,0.5038409942426535,0,0.47995266093814437,0,0.4468938863595042,0,0.5076599106194842,0,,0,0.5748012079510308,0,0.4615904666922951,0,0.44261372912167674,0
2025-03-04 10:43:04.053,0.46128620169456613,0,0.4611309197526426,0,0.4943513972512049,0,0.4693976081145588,0,0.42854103516735764,0,0.4880756975966398,0,,0,0.550440405698112,0,0.4350331204030631,0,0.44652942260049283,0
2025-03-04 10:43:04.118,0.4854574416862262,0,0.44542143405057955,0,0.4670103188987841,0,0.4512086997720232,0,0.42837521322584565,0,0.49860485075897765,0,,0,0.5661159704839573,0,0.45772782775981424,0,0.4486976078722935,0
2025-03-04 10:43:04.187,0.41760209813189886,0,0.4493739528239149,0,0.47027762978030824,0,0.464125454175303,0,0.4443591672406685,0,0.5223432379979439,0,,0,0.5854328865350474,0,0.4987066153390001,0,0.44707295693004734,0
2025-03-04 10:43:04.255,0.408643083516886,0,0.4431357268971505,0,0.4971901845001884,0,0.47656547539619104,0,0.4683950191015124,0,0.5499411675262338,0,,0,0.6435718494554119,0,0.5405086781463116,0,0.44134658505809543,0
2025-03-04 10:43:04.324,0.41420420421272625,0,0.42210920086050996,0,0.5283285007215467,0,0.5000672747589604,0,0.49069739945630747,0,0.5645527178179001,0,,0,0.6599746562510326,0,0.5541045024360618,0,0.43401997269646964,0
2025-03-04 10:43:04.392,0.43523664215696667,0,0.47603667832964197,0,0.5562245035879553,0,0.529590788832197,0,0.4997874327177683,0,0.5583550715044149,0,,0,0.570260911084932,0,0.543801852647633,0,0.4294138576362241,0
2025-03-04 10:43:04.460,0.4700824450408993,0,0.49841418022047357,0,0.571124878453152,0,0.5479039446934646,0,0.49068242935782774,0,0.5382318438117121,0,,0,0.5155732277089757,0,0.48021068151789703,0,0.42910435116166196,0
2025-03-04 10:43:04.529,0.4868648942673866,0,0.5859749170055775,0,0.5556113267693403,0,0.5464578269021106,0,0.47995870126369633,0,0.5193666939454562,0,,0,0.5588895201394016,0,0.43315831763691814,0,0.43172638399828506,0
2025-03-04 10:43:04.597,0.5807595295099965,0,0.6315894654520087,0,0.5316114737334576,0,0.5254970056879148,0,0.47199501397211197,0,0.5174632747403529,0,,0,0.4879783319434396,0,0.41945573001585373,0,0.43554672979127834,0
2025-03-04 10:43:04.665,0.46216524160895545,0,0.44076223957171146,0,0.5191686562906513,0,0.5063396631922402,0,0.4587802552730337,0,0.5120906755918209,0,,0,0.5071733736972243,0,0.4212775323614264,0,0.4393994894713973,0
2025-03-04 10:43:04.734,0.4439960576672267,0,0.40632763631159297,0,0.5043046979927113,0,0.4791773004922975,0,0.4424841171718275,0,0.49945192649315034,0,,0,0.5007633257289866,0,0.42490401456235966,0,0.4442662023477132,0
2025-03-04 10:43:04.802,0.44903649572984167,0,0.42126294963289834,0,0.5015802644850532,0,0.46811955017730517,0,0.44705345569985183,0,0.500123321205617,0,,0,0.44791680133687484,0,0.4650092362099816,0,0.44880975132611184,0
2025-03-04 10:43:04.870,0.47352371057737574,0,0.4117059203444056,0,0.5388137886062326,0,0.48482400698045214,0,0.46352813540605325,0,0.5064153740371955,0,,0,0.4892330710319195,0,0.4701759042907346,0,0.45193039802566537,0
2025-03-04 10:43:04.939,0.49498343432502506,0,0.4959502626930548,0,0.5693156452840812,0,0.512294916357978,0,0.4836427009748065,0,0.5203586102403731,0,,0,0.49685812352472863,0,0.4896567654071948,0,0.452123214337901,0
2025-03-04 10:43:05.007,0.5237617965050908,0,0.5123141440689619,0,0.5938176904786804,0,0.5420245526289609,0,0.5032005517231314,0,0.5446373882791709,0,,0,0.5169485798108129,0,0.49443726413968797,0,0.44887382127777564,0
2025-03-04 10:43:05.075,0.4985008461657192,0,0.5254857462320824,0,0.5721455344502576,0,0.5452223907678035,0,0.5081197735070785,0,0.5577058179457761,0,,0,0.5289417042944178,0,0.4732942483084402,0,0.4444338395451973,0
2025-03-04 10:43:05.144,0.46435258645465516,0,0.4719106338708733,0,0.547325517036646,0,0.5281805564200707,0,0.49660811302017327,0,0.5543277298842733,0,,0,0.5250811061205466,0,0.4613234395201511,0,0.4413157866662501,0
2025-03-04 10:43:05.213,0.4539528796645331,0,0.4768653081862091,0,0.5082697215737262,0,0.5022840293468429,0,0.480803681391426,0,0.5416359004465833,0,,0,0.512375658096959,0,0.46208734298329995,0,0.44031103930625587,0
2025-03-04 10:43:05.282,0.43969973977097887,0,0.44181312865810246,0,0.5056958253767828,0,0.49588381812043897,0,0.4632761129587741,0,0.5210914727333774,0,,0,0.4872895560835247,0,0.44780506500023226,0,0.44093412900933177,0
2025-03-04 10:43:05.352,0.4248213043196935,0,0.4496537907101544,0,0.4967618323437495,0,0.48158968590824375,0,0.44219261450167197,0,0.5017252328805303,0,,0,0.46363878859589835,0,0.4362199966387892,0,0.4432523987354315,0
2025-03-04 10:43:05.419,0.5143772323007015,0,0.4393113886812229,0,0.49447947766742123,0,0.4719547148050553,0,0.428928427396807,0,0.4949279858388282,0,,0,0.4985178095489668,0,0.43380069248798253,0,0.44698589508366265,0
2025-03-04 10:43:05.488,0.4626486032328062,0,0.41036669016690447,0,0.5136929739234024,0,0.48105854453498187,0,0.43904937540877714,0,0.5154566282119726,0,,0,0.5090432926331742,0,0.45590511643447695,0,0.4505010484229944,0
2025-03-04 10:43:05.556,0.46110226828794837,0,0.4022862561347309,0,0.5195647920923545,0,0.49156385276582903,0,0.453497804702278,0,0.5314026691107209,0,,0,0.5186274534872604,0,0.4821079205574082,0,0.4519318059950091,0
2025-03-04 10:43:05.624,0.503796438491089,0,0.4202623107455824,0,0.533135916167189,0,0.513709848811587,0,0.4783770318131852,0,0.5564111816100592,0,,0,0.552680642391043,0,0.48689501937651564,0,0.44853951566813494,0
2025-03-04 10:43:05.694,0.5416595115568117,0,0.47028341463154155,0,0.5460838239703657,0,0.5355866973036225,0,0.4959637454004753,0,0.5675582797796583,0,,0,0.5700638130073555,0,0.48597356437535677,0,0.44008800578510765,0
2025-03-04 10:43:05.762,0.5710919526475056,0,0.5014537193786459,0,0.5518492482273492,0,0.5477281439425794,0,0.4917817370639231,0,0.5603014865169121,0,,0,0.6049001311661373,0,0.4715481523002153,0,0.4301720358525797,0
2025-03-04 10:43:05.830,0.5776399054130977,0,0.5190011832722227,0,0.5554762548733302,0,0.5388006246015797,0,0.47511328410147224,0,0.5352308707162349,0,,0,0.7098507658759036,0,0.4557398906396258,0,0.4243529543149702,0
2025-03-04 10:43:05.902,0.5594693829239116,0,0.47853523268226517,0,0.5478020486332628,0,0.5181720142253256,0,0.4604361320557351,0,0.5174816611875417,0,,0,0.5393753411961909,0,0.448841840181674,0,0.42515234786185724,0
2025-03-04 10:43:05.967,0.5470439401567465,0,0.42366690833917797,0,0.5273128926878415,0,0.4952657166413994,0,0.4509588424972551,0,0.4972465837358733,0,,0,0.5474495305920644,0,0.4366850088572346,0,0.4318527470243831,0
2025-03-04 10:43:06.035,0.49070890139521406,0,0.4814104413389499,0,0.5068692372396288,0,0.473678898540137,0,0.44203748350668287,0,0.47546468548309734,0,,0,0.5643869641225636,0,0.4278831084099505,0,0.4409554393953834,0
2025-03-04 10:43:06.105,0.4826347213302486,0,0.4049584991065317,0,0.4977762519906423,0,0.46952555665921586,0,0.44306613216122837,0,0.4793109486784056,0,,0,0.34706987213650065,0,0.41278733516981153,0,0.4477091735688623,0
2025-03-04 10:43:06.173,0.5112505579005043,0,0.46571847568722097,0,0.5089288486722998,0,0.4861336906079341,0,0.45520984850762863,0,0.4960397343099324,0,,0,0.43860122014811137,0,0.4562750293642829,0,0.45082962193532183,0
2025-03-04 10:43:06.241,0.5382785883525958,0,0.540055228007998,0,0.5238550771452121,0,0.5097033991170993,0,0.4687413629943901,0,0.5215033160698685,0,,0,0.5743200901669782,0,0.4818416521762551,0,0.4509439083026163,0
2025-03-04 10:43:06.310,0.5049865727047218,0,0.5175854053666397,0,0.550360044556993,0,0.5293902535326037,0,0.4848083234028459,0,0.5348276151653744,0,,0,0.5123083410517913,0,0.4922720568131459,0,0.44805222469152084,0
2025-03-04 10:43:06.378,0.5367921659468028,0,0.47871729236975363,0,0.5438100916302079,0,0.5277630592185306,0,0.4921517763552204,0,0.5329188154392912,0,,0,0.4108265774686951,0,0.4944701248995834,0,0.4433436032791843,0
2025-03-04 10:43:06.447,0.49474098375492226,0,0.4574757000398108,0,0.5416212312817497,0,0.5233788413645413,0,0.4882335653221732,0,0.5162779032252336,0,,0,0.6630097220771669,0,0.46482103730518187,0,0.43835975079496825,0
2025-03-04 10:43:06.516,0.4654427956312964,0,0.4404354313622374,0,0.515658943894366,0,0.507263857616514,0,0.46918113240641307,0,0.5171127321570013,0,,0,0.5157194370797941,0,0.4616951062776338,0,0.43464721608098483,0
2025-03-04 10:43:06.584,0.4539544356442281,0,0.43977257592921054,0,0.447352469665756,0,0.456830895869879,0,0.4107589993121926,0,0.4705545028105145,0,,0,0.5409451585591291,0,0.46815784566283747,0,0.4340786691121629,0
2025-03-04 10:43:06.653,0.47002363253297397,0,0.44948398530479156,0,0.3629775508553639,0,0.40460772391864697,0,0.3811275165265925,0,0.4323773673473171,0,,0,0.5263943759459107,0,0.47893978533859255,0,0.43691969176853496,0
2025-03-04 10:43:06.721,0.4615981780657229,0,0.4438520810568103,0,0.35680718605102213,0,0.3823270196474858,0,0.3680594490426048,0,0.4404275289843056,0,,0,0.519059387577417,0,0.4761416742916163,0,0.4427959300712447,0
2025-03-04 10:43:06.790,0.45668790055766095,0,0.43904737226297896,0,0.47199997878241057,0,0.4063920577705907,0,0.3610077093916165,0,0.414847152326034,0,,0,0.5502557783303751,0,0.4670404098634001,0,0.4492103282248153,0
2025-03-04 10:43:06.859,0.45916695935532437,0,0.46055585194966125,0,0.3670702203599863,0,0.39378500719209597,0,0.3811278754347832,0,0.42657343970268163,0,,0,0.517485002219468,0,0.4562456941588657,0,0.4533543737712354,0
2025-03-04 10:43:06.927,0.4622048172806666,0,0.4864187569375141,0,0.3517730874144898,0,0.4090160480187109,0,0.4152167480226932,0,0.45569774831482796,0,,0,0.5404749371097264,0,0.4573023066127644,0,0.44929578158596395,0
2025-03-04 10:43:06.996,0.4880921362417401,0,0.522095192023655,0,0.44991491704839703,0,0.4652232220466601,0,0.4408381886793607,0,0.48172037817268426,0,,0,0.5978326437615541,0,0.5001758564500547,0,0.3910038053491968,0
2025-03-04 10:43:07.065,0.519433273787853,0,0.4972037010316257,0,0.4592981600026896,0,0.4871085989203705,0,0.46099011455027666,0,0.4855815631281338,0,,0,0.5973603967709697,0,0.501031534686412,0,0.3604023064938399,0
2025-03-04 10:43:07.133,0.5401599275721243,0,0.5374291250038546,0,0.46107225207898367,0,0.47802635388409015,0,0.4530086373181636,0,0.46543570627438746,0,,0,0.4619966192261897,0,0.48208179180309063,0,0.35425273805103474,0
2025-03-04 10:43:07.202,0.5104949350268762,0,0.5265142014942208,0,0.44782481428604615,0,0.4562229804122574,0,0.4305707188032137,0,0.43458493757270367,0,,0,0.4280156907709968,0,0.46670954172566753,0,0.35122192459548834,0
2025-03-04 10:43:07.271,0.5015456426010624,0,0.5205524936960331,0,0.4373076760392684,0,0.4285697820222814,0,0.4058034538224183,0,0.40541560569621937,0,,0,0.40730155016825736,0,0.45693969185165834,0,0.3532839132586012,0
2025-03-04 10:43:07.339,0.577853970570281,0,0.5725535802211232,0,0.5552970876845038,0,0.46283878407710216,0,0.3793101236143902,0,0.3823282917532229,0,,0,0.4181205097104425,0,0.460835433709935,0,0.3610306589836816,0
2025-03-04 10:43:07.407,0.4513609508063462,0,0.4429848946973435,0,0.40486390737746636,0,0.38972670485989314,0,0.3375068942743697,0,0.3772933431709543,0,,0,0.38921992038291503,0,0.4391092324682288,0,0.3707028123523396,0
2025-03-04 10:43:07.476,0.4517409664613961,0,0.4277668429305246,0,0.4411959899313615,0,0.38271452859613936,0,0.35740531363913813,0,0.3884887796774326,0,,0,0.36499048780081544,0,0.4511561360119085,0,0.37804850488964165,0
2025-03-04 10:43:07.544,0.4457112195014463,0,0.4262885976034619,0,0.37525286122915247,0,0.38559381397206466,0,0.3634421744733394,0,0.4174235679891283,0,,0,0.4424338537921538,0,0.4841710311557561,0,0.37980008719536396,0
2025-03-04 10:43:07.613,0.34334130553063547,0,0.4295403066420845,0,0.3660272525076139,0,0.4040978813090284,0,0.4097635840009916,0,0.4664821803643547,0,,0,0.47511960166200023,0,0.4802650361503704,0,0.37483327448590176,0
2025-03-04 10:43:07.681,0.4765695579590861,0,0.425308408900801,0,0.3775425764892179,0,0.42980443232014287,0,0.44031573917865524,0,0.4981543429970193,0,,0,0.4656964029778627,0,0.4796972557343288,0,0.3647040025737389,0
2025-03-04 10:43:07.752,0.4839186181398695,0,0.4065874427106873,0,0.4322628460293329,0,0.44420602753637733,0,0.4495734080072296,0,0.5100795090120064,0,,0,0.5178377013195983,0,0.5160614160929549,0,0.3541506124556213,0
2025-03-04 10:43:07.819,0.6982590925535507,0,0.4048241059143515,0,0.37832332204174685,0,0.44416393374256774,0,0.43439635489901846,0,0.4784542706960227,0,,0,0.4608935749345196,0,0.4520721469001576,0,0.34863716000588013,0
2025-03-04 10:43:07.887,0.5483715695123133,0,0.4227121265322197,0,0.3768666493365386,0,0.437428617347347,0,0.4235149199638908,0,0.4514360375962219,0,,0,0.4475625222934835,0,0.4832856981539128,0,0.34745058479572843,0
2025-03-04 10:43:07.955,0.4714438578858886,0,0.440817735017043,0,0.38209368187795667,0,0.426670270964393,0,0.47707728460164367,0,0.42044106703994677,0,,0,0.41284641018060547,0,0.48130385117887564,0,0.34910218928731374,0
2025-03-04 10:43:08.024,0.47059661170462064,0,0.49959160492954807,0,0.4745321084413464,0,0.4993638743853746,0,0.4692871813181347,0,0.4018505383300399,0,,0,0.41146911505982664,0,0.4623313810710742,0,0.37873113157607063,0
2025-03-04 10:43:08.092,0.545067430845005,0,0.47809812054829826,0,0.5253900400977225,0,0.5332632900455212,0,0.44397659152959057,0,0.39703125609509965,0,,0,0.46271555754229354,0,0.49979603273495626,0,0.44569505848878155,0
2025-03-04 10:43:08.160,0.3920675702827303,0,0.4682104986988568,0,0.4589585334916075,0,0.524516374608565,0,0.43422163802678165,0,0.4043699052764541,0,,0,0.5042278138838288,0,0.49248596514004067,0,0.5566166520792262,0
2025-03-04 10:43:08.229,0.5346757747561667,0,0.48867362126464087,0,0.45741391552613003,0,0.530688851343106,0,0.4396159939866184,0,0.41599163655014226,0,,0,0.5055305455102403,0,0.4793138156632535,0,0.5658180252436655,0
2025-03-04 10:43:08.304,0.5431142710729073,0,0.4781384796623662,0,0.4776765657357556,0,0.5512722594565934,0,0.44663538957190724,0,0.43247413055273215,0,,0,0.5019637368139415,0,0.5055785765675422,0,0.564900180523748,0
2025-03-04 10:43:08.512,0.5357691960306579,0,0.48486902669715,0,0.4692057865356606,0,0.5177219145355989,0,0.4372365186412694,0,0.4457147526070288,0,,0,0.4691018608776941,0,0.4068249574941303,0,0.575253744874193,0
2025-03-04 10:43:08.734,0.5262960435782212,0,0.5427087296588251,0,0.5287848684166764,0,0.48941347999753015,0,0.39262812967434163,0,0.39538592889441493,0,,0,0.5200031874405342,0,0.501904154762395,0,0.589327518682742,0
2025-03-04 10:43:08.981,0.45773379243144846,0,0.45025610673391986,0,0.3720234008168799,0,0.4199659505183302,0,0.3642230545907926,0,0.3887108256096618,0,,0,0.49938594624372495,0,0.48887169072857656,0,0.6014038247324208,0
2025-03-04 10:43:09.212,0.4054427702590719,0,0.4518910594592099,0,0.3800533778201361,0,0.35970962880882607,0,0.35376599288846766,0,0.37915471768562287,0,,0,0.4646776157241114,0,0.5041916143144617,0,0.5598414845728588,0
2025-03-04 10:43:09.450,0.5163236974161937,0,0.5264260293927802,0,0.45418586257192267,0,0.42358105437519145,0,0.3762511290047261,0,0.3766710592552987,0,,0,0.42469382857188476,0,0.5295891959549236,0,0.5545277288156814,0
2025-03-04 10:43:09.671,0.521182317346147,0,0.4009054467118985,0,0.3994461906464792,0,0.418272868306736,0,0.40683113972537566,0,0.3933398186400586,0,,0,0.43116198345800616,0,0.5285081995712558,0,0.5422703080880814,0
2025-03-04 10:43:09.914,0.4465462867209242,1,0.3694427466592905,0,0.42124563051219127,0,0.4016094129397857,0,0.39443478305708335,0,0.4100743242357774,0,,0,0.4689502486458583,0,0.5617567013076465,0,0.5379965092952826,0
2025-03-04 10:43:10.925,0.4443211036393303,1,0.36814355123203363,0,0.4181753199835009,0,0.40522137479434583,0,0.43091126248587724,0,0.4306091464789254,0,,0,0.4464211404625678,0,0.5211873492953171,0,0.5465847908272331,0
2025-03-04 10:43:11.127,0.543565831441626,0,0.3786525046758042,0,0.42622046086994647,0,0.4132659381875809,0,0.4520133355483945,0,0.44226273477046235,0,,0,0.43264447033695524,0,0.5755175391488702,0,0.5484028928244743,0
2025-03-04 10:43:11.332,0.4919434856069079,1,0.3778431545390081,0,0.41475165718841134,0,0.41437135665951197,0,0.4700883164415518,0,0.45395537670292047,0,,0,0.4262252354489536,0,0.5952984750789382,0,0.549715673321469,0
2025-03-04 10:43:11.471,0.5054249013328876,0,0.4062044108506735,0,0.43568815528613836,0,0.40146538536512544,0,0.4680417705692106,0,0.43708153610113304,0,,0,0.4270795325601715,0,0.559783325227764,0,0.543885515362172,0
2025-03-04 10:43:11.694,0.5093957227828815,0,0.39728861416300465,0,0.42398523016189626,0,0.4088704330633499,0,0.4785223707589698,0,0.4434516723074903,0,,0,0.4314617424220648,0,0.5719109510631611,0,0.5498963257230074,0
2025-03-04 10:43:11.958,0.4939987782760868,1,0.37526580703923745,0,0.41248581723466693,0,0.41554236870885275,0,0.4694757344606322,0,0.44825168776667124,0,,0,0.42456104036344977,0,0.5996424545542361,0,0.5600637465142794,0
2025-03-04 10:43:12.212,0.45390839482295375,1,0.3530194060201904,0,0.4077747952647342,0,0.38856169815841435,0,0.4539454833864225,0,0.44545095003271823,0,,0,0.47003808451074475,0,0.60528380793958,0,0.5616920675368895,0
2025-03-04 10:43:15.557,0.4782316979906545,0,0.370056463014544,0,0.4079773938181644,0,0.4065513978447474,0,0.4576130920104168,0,0.4453419474813184,0,,0,0.4342350259241964,0,0.6290551546315024,0,0.5578461006466617,0
2025-03-04 10:43:15.777,0.48334098638932904,0,0.4356126084339984,0,0.41303226752085337,0,0.3795894721891583,0,0.46172499029121483,0,0.4415748081068661,0,,0,0.4232853724708803,0,0.6064089045491284,0,0.5614480429080334,0
2025-03-04 10:43:15.975,0.46778603156866705,0,0.4236932456970403,0,0.409757315972071,0,0.37529546642339306,0,0.44972667709709,0,0.4271565188014044,0,,0,0.42063339330611565,0,0.5975125546385215,0,0.5555481993678535,0
2025-03-04 10:43:16.170,0.48884915482094915,0,0.41950685298849544,0,0.40685528731900944,0,0.36750253456019766,0,0.45022759880952795,0,0.42750223689433686,0,,0,0.41932419292165346,0,0.5968062375385413,0,0.5478564138748733,0
2025-03-04 10:43:16.309,0.49739532055943975,0,0.4275490820096384,0,0.4137988019824978,0,0.3747086566020412,0,0.45857674871289755,0,0.43895861365875466,0,,0,0.42596876562673497,0,0.6075440990882821,0,0.5428444075609552,0
2025-03-04 10:43:16.434,0.4722388247634798,0,0.46436510307258744,0,0.40664034588683173,0,0.3760119638235093,0,0.44100270763524047,0,0.4545526959498984,0,,0,0.4631680031146116,0,0.5959790198540219,0,0.5461696919861568,0
2025-03-04 10:43:16.547,0.4735886873552112,0,0.4676186402084816,0,0.4050291050872237,0,0.3823491722532168,0,0.44200657427840095,0,0.45214008232985325,0,,0,0.4563188724670078,0,0.591704617785817,0,0.5436886783456794,0
2025-03-04 10:43:16.666,0.47802803284657214,0,0.46124801920888114,0,0.42222464056489,0,0.39432686017927915,0,0.4533544055507164,0,0.45504363392328895,0,,0,0.4398812048396552,0,0.5971327165544887,0,0.5538086746265356,0
2025-03-04 10:43:16.786,0.4816193773998587,0,0.4821408007636448,0,0.43759069858691807,0,0.4002571669213418,0,0.46142144784528183,0,0.46311799272720694,0,,0,0.4396700435202665,0,0.5941946673718222,0,0.5550892562803931,0
2025-03-04 10:43:16.917,0.48523216411708325,0,0.48130754014698796,0,0.4201176545597677,0,0.4020973719433971,0,0.4692067000867133,0,0.4582786128265638,0,,0,0.4299421577774538,0,0.5942809578280385,0,0.5582912705581063,0
2025-03-04 10:43:17.059,0.4532165797167157,0,0.46437170853242293,0,0.4519941202686541,0,0.42049716575040436,0,0.463260564097901,0,0.4642230560336016,0,,0,0.4443499007583124,0,0.5889065120689932,0,0.5624999010214623,0
2025-03-04 10:43:17.250,0.4778486198080535,0,0.5049835874107498,0,0.4781951156519368,0,0.4330510347145808,0,0.4623574638834455,0,0.4545295569260904,0,,0,0.43119460472738314,0,0.5670181924716622,0,0.5639728120182683,0
2025-03-04 10:43:17.430,0.46805743502005537,0,0.5086175275120642,0,0.4817172454417548,0,0.44990249679615085,0,0.4618292021231843,0,0.4543821918923808,0,,0,0.4412075264413587,0,0.5804197038647104,0,0.5615208763464312,0
2025-03-04 10:43:17.619,0.4606372494376056,0,0.4667003654397044,0,0.4437353307845111,0,0.41366869469517065,0,0.4242989446228406,0,0.44468059201319615,0,,0,0.4492474397393955,0,0.5797917794604693,0,0.5577256493102676,0
2025-03-04 10:43:17.806,0.46853888291624546,0,0.45406799951146265,0,0.4040669275812598,0,0.36746310055401354,0,0.4214433091809174,0,0.42877050989686444,0,,0,0.4426297095294475,0,0.5646320775940195,0,0.5579489058357281,0
2025-03-04 10:43:18.003,0.48180323001493824,0,0.4405738667212444,0,0.39938297577720094,0,0.3617036572319105,0,0.4395028405071493,0,0.43025762980016646,0,,0,0.4278752482716993,0,0.5873386094285048,0,0.49863181520627536,0
2025-03-04 10:43:18.183,0.48339021088743805,0,0.337076379700491,0,0.4205312940543764,0,0.38753240971929204,0,0.46518509502596495,0,0.4390513181328584,0,,0,0.43021904013714896,0,0.620059693312967,0,0.4542388353696307,0
2025-03-04 10:43:18.352,0.4887039427070779,0,0.4036213717898543,0,0.42948883517076675,0,0.41111898081631965,0,0.47904801194970653,0,0.44361012047932613,0,,0,0.43112918920022303,0,0.6246324315912131,0,0.4547569269652897,0
