Untitled1.acq
Graph Created on: 2025-02-21 11:01:03.020
Recording on: 2025-02-21 11:05:38.634
0.5 msec/sample
1 channels
PPG, X, PPGED-R
Volts
milliSec	CH1	
	85351 samples	
0	-0.0512695	
0.5	-0.0509644	
1	-0.0518799	
1.5	-0.0512695	
2	-0.0512695	
2.5	-0.0506592	
3	-0.0509644	
3.5	-0.0512695	
4	-0.0518799	
4.5	-0.0515747	
5	-0.0515747	
5.5	-0.0515747	
6	-0.0512695	
6.5	-0.0515747	
7	-0.0527954	
7.5	-0.0552368	
8	-0.0561523	
8.5	-0.0564575	
9	-0.0558472	
9.5	-0.0558472	
10	-0.0561523	
10.5	-0.0564575	
11	-0.0561523	
11.5	-0.0561523	
12	-0.0567627	
12.5	-0.0564575	
13	-0.0561523	
13.5	-0.0561523	
14	-0.0561523	
14.5	-0.0561523	
15	-0.0558472	
15.5	-0.0561523	
16	-0.0558472	
16.5	-0.0561523	
17	-0.0564575	
17.5	-0.0558472	
18	-0.0558472	
18.5	-0.0558472	
19	-0.0561523	
19.5	-0.0558472	
20	-0.0561523	
20.5	-0.0564575	
21	-0.0558472	
21.5	-0.0552368	
22	-0.055542	
22.5	-0.0561523	
23	-0.0564575	
23.5	-0.0558472	
24	-0.0564575	
24.5	-0.0561523	
25	-0.0561523	
25.5	-0.0558472	
26	-0.0558472	
26.5	-0.0564575	
27	-0.0561523	
27.5	-0.0561523	
28	-0.0570679	
28.5	-0.0564575	
29	-0.0561523	
29.5	-0.0561523	
30	-0.0558472	
30.5	-0.0558472	
31	-0.0561523	
31.5	-0.0561523	
32	-0.0564575	
32.5	-0.0561523	
33	-0.0564575	
33.5	-0.0564575	
34	-0.055542	
34.5	-0.0564575	
35	-0.0561523	
35.5	-0.0576782	
36	-0.0598145	
36.5	-0.0610352	
37	-0.0613403	
37.5	-0.0613403	
38	-0.0610352	
38.5	-0.0610352	
39	-0.0616455	
39.5	-0.0613403	
40	-0.0610352	
40.5	-0.06073	
41	-0.0604248	
41.5	-0.0613403	
42	-0.0616455	
42.5	-0.0613403	
43	-0.0604248	
43.5	-0.0610352	
44	-0.06073	
44.5	-0.0616455	
45	-0.0616455	
45.5	-0.0613403	
46	-0.06073	
46.5	-0.0613403	
47	-0.0613403	
47.5	-0.0610352	
48	-0.0613403	
48.5	-0.0610352	
49	-0.0616455	
49.5	-0.0616455	
50	-0.0610352	
50.5	-0.0619507	
51	-0.06073	
51.5	-0.0619507	
52	-0.0610352	
52.5	-0.0613403	
53	-0.0616455	
53.5	-0.0610352	
54	-0.0610352	
54.5	-0.0613403	
55	-0.0610352	
55.5	-0.0610352	
56	-0.0616455	
56.5	-0.0613403	
57	-0.0616455	
57.5	-0.0613403	
58	-0.0610352	
58.5	-0.0613403	
59	-0.0610352	
59.5	-0.06073	
60	-0.0616455	
60.5	-0.06073	
61	-0.0610352	
61.5	-0.0604248	
62	-0.0610352	
62.5	-0.06073	
63	-0.0616455	
63.5	-0.0613403	
64	-0.0616455	
64.5	-0.0604248	
65	-0.0650024	
65.5	-0.0662231	
66	-0.065918	
66.5	-0.0662231	
67	-0.0665283	
67.5	-0.0662231	
68	-0.065918	
68.5	-0.0662231	
69	-0.065918	
69.5	-0.0662231	
70	-0.065918	
70.5	-0.0665283	
71	-0.0665283	
71.5	-0.065918	
72	-0.0662231	
72.5	-0.0662231	
73	-0.0665283	
73.5	-0.0662231	
74	-0.0662231	
74.5	-0.065918	
75	-0.0665283	
75.5	-0.0656128	
76	-0.065918	
76.5	-0.065918	
77	-0.0656128	
77.5	-0.065918	
78	-0.065918	
78.5	-0.0662231	
79	-0.0653076	
79.5	-0.065918	
80	-0.0656128	
80.5	-0.065918	
81	-0.065918	
81.5	-0.065918	
82	-0.0662231	
82.5	-0.0662231	
83	-0.0692749	
83.5	-0.0704956	
84	-0.0708008	
84.5	-0.0708008	
85	-0.0714111	
85.5	-0.071106	
86	-0.071106	
86.5	-0.0704956	
87	-0.071106	
87.5	-0.071106	
88	-0.071106	
88.5	-0.0704956	
89	-0.071106	
89.5	-0.071106	
90	-0.071106	
90.5	-0.0708008	
91	-0.071106	
91.5	-0.0714111	
92	-0.0708008	
92.5	-0.071106	
93	-0.071106	
93.5	-0.0708008	
94	-0.071106	
94.5	-0.0708008	
95	-0.071106	
95.5	-0.0708008	
96	-0.071106	
96.5	-0.071106	
97	-0.0717163	
97.5	-0.071106	
98	-0.0714111	
98.5	-0.071106	
99	-0.0708008	
99.5	-0.0708008	
100	-0.0738525	
100.5	-0.0750732	
101	-0.0765991	
101.5	-0.0765991	
102	-0.0759888	
102.5	-0.0759888	
103	-0.0762939	
103.5	-0.0759888	
104	-0.0756836	
104.5	-0.0765991	
105	-0.0756836	
105.5	-0.0765991	
106	-0.0769043	
106.5	-0.0753784	
107	-0.0762939	
107.5	-0.0759888	
108	-0.0759888	
108.5	-0.0759888	
109	-0.0762939	
109.5	-0.0762939	
110	-0.0759888	
110.5	-0.0762939	
111	-0.0759888	
111.5	-0.0765991	
112	-0.0759888	
112.5	-0.0759888	
113	-0.0762939	
113.5	-0.0765991	
114	-0.0756836	
114.5	-0.0759888	
115	-0.0762939	
115.5	-0.0765991	
116	-0.0762939	
116.5	-0.0759888	
117	-0.0756836	
117.5	-0.0775146	
118	-0.0805664	
118.5	-0.0802612	
119	-0.0802612	
119.5	-0.0805664	
120	-0.0805664	
120.5	-0.0811768	
121	-0.0808716	
121.5	-0.0805664	
122	-0.0805664	
122.5	-0.0808716	
123	-0.0805664	
123.5	-0.0799561	
124	-0.0811768	
124.5	-0.0802612	
125	-0.0808716	
125.5	-0.0799561	
126	-0.0805664	
126.5	-0.0808716	
127	-0.0802612	
127.5	-0.0808716	
128	-0.0808716	
128.5	-0.0802612	
129	-0.0799561	
129.5	-0.0805664	
130	-0.0805664	
130.5	-0.0802612	
131	-0.0799561	
131.5	-0.0808716	
132	-0.0808716	
132.5	-0.0802612	
133	-0.0808716	
133.5	-0.0805664	
134	-0.0805664	
134.5	-0.0808716	
135	-0.0799561	
135.5	-0.0799561	
136	-0.0811768	
136.5	-0.0802612	
137	-0.0811768	
137.5	-0.0802612	
138	-0.0802612	
138.5	-0.0808716	
139	-0.0805664	
139.5	-0.0811768	
140	-0.0802612	
140.5	-0.0808716	
141	-0.0805664	
141.5	-0.0805664	
142	-0.0808716	
142.5	-0.0805664	
143	-0.0811768	
143.5	-0.0799561	
144	-0.0802612	
144.5	-0.0799561	
145	-0.0799561	
145.5	-0.0802612	
146	-0.0805664	
146.5	-0.0805664	
147	-0.0805664	
147.5	-0.0808716	
148	-0.0808716	
148.5	-0.0805664	
149	-0.0808716	
149.5	-0.0805664	
150	-0.0808716	
150.5	-0.0808716	
151	-0.0802612	
151.5	-0.0811768	
152	-0.0808716	
152.5	-0.0802612	
153	-0.0808716	
153.5	-0.0814819	
154	-0.0802612	
154.5	-0.0808716	
155	-0.0796509	
155.5	-0.0769043	
156	-0.0762939	
156.5	-0.0756836	
157	-0.0762939	
157.5	-0.0756836	
158	-0.0762939	
158.5	-0.0762939	
159	-0.0753784	
159.5	-0.0759888	
160	-0.0753784	
160.5	-0.0759888	
161	-0.0753784	
161.5	-0.0756836	
162	-0.0765991	
162.5	-0.0759888	
163	-0.0759888	
163.5	-0.0756836	
164	-0.0759888	
164.5	-0.0750732	
165	-0.0720215	
165.5	-0.0717163	
166	-0.0708008	
166.5	-0.071106	
167	-0.071106	
167.5	-0.071106	
168	-0.071106	
168.5	-0.0708008	
169	-0.071106	
169.5	-0.071106	
170	-0.0714111	
170.5	-0.0701904	
171	-0.0671387	
171.5	-0.065918	
172	-0.065918	
172.5	-0.0662231	
173	-0.0656128	
173.5	-0.0656128	
174	-0.0665283	
174.5	-0.0653076	
175	-0.0656128	
175.5	-0.0628662	
176	-0.0610352	
176.5	-0.06073	
177	-0.0610352	
177.5	-0.0613403	
178	-0.0616455	
178.5	-0.0604248	
179	-0.0570679	
179.5	-0.0558472	
180	-0.0561523	
180.5	-0.0564575	
181	-0.0564575	
181.5	-0.0558472	
182	-0.0564575	
182.5	-0.0527954	
183	-0.0518799	
183.5	-0.0509644	
184	-0.0515747	
184.5	-0.0518799	
185	-0.0506592	
185.5	-0.0476074	
186	-0.0460815	
186.5	-0.0463867	
187	-0.0469971	
187.5	-0.0463867	
188	-0.0427246	
188.5	-0.0418091	
189	-0.0418091	
189.5	-0.0411987	
190	-0.0411987	
190.5	-0.0384521	
191	-0.0369263	
191.5	-0.0369263	
192	-0.0372314	
192.5	-0.0360107	
193	-0.0335693	
193.5	-0.0323486	
194	-0.0314331	
194.5	-0.0314331	
195	-0.0286865	
195.5	-0.0271606	
196	-0.0271606	
196.5	-0.0265503	
197	-0.0238037	
197.5	-0.022583	
198	-0.0222778	
198.5	-0.0210571	
199	-0.0189209	
199.5	-0.0170898	
200	-0.0164795	
200.5	-0.0143433	
201	-0.0125122	
201.5	-0.0125122	
202	-0.0119019	
202.5	-0.00915527	
203	-0.00823975	
203.5	-0.00701904	
204	-0.00427246	
204.5	-0.00274658	
205	-0.00244141	
205.5	-0.00183105	
206	0.000610352	
206.5	0.00274658	
207	0.00305176	
207.5	0.00488281	
208	0.00640869	
208.5	0.00732422	
209	0.0106812	
209.5	0.0112915	
210	0.0125122	
210.5	0.0149536	
211	0.0170898	
211.5	0.017395	
212	0.0198364	
212.5	0.0219727	
213	0.0222778	
213.5	0.0244141	
214	0.0262451	
214.5	0.0271606	
215	0.0299072	
215.5	0.0314331	
216	0.0317383	
216.5	0.03479	
217	0.0366211	
217.5	0.0366211	
218	0.0396729	
218.5	0.0411987	
219	0.0411987	
219.5	0.045166	
220	0.0457764	
220.5	0.0491333	
221	0.0518799	
221.5	0.0521851	
222	0.0543213	
222.5	0.0561523	
223	0.0567627	
223.5	0.0592041	
224	0.0604248	
224.5	0.0616455	
225	0.0650024	
225.5	0.0653076	
226	0.0683594	
226.5	0.0704956	
227	0.0717163	
227.5	0.0735474	
228	0.0759888	
228.5	0.0765991	
229	0.0787354	
229.5	0.0799561	
230	0.0827026	
230.5	0.085144	
231	0.0857544	
231.5	0.0875854	
232	0.0897217	
232.5	0.0906372	
233	0.0930786	
233.5	0.09552	
234	0.0976563	
234.5	0.100098	
235	0.100098	
235.5	0.102539	
236	0.10437	
236.5	0.105286	
237	0.107727	
237.5	0.109253	
238	0.110168	
238.5	0.112	
239	0.114136	
239.5	0.117188	
240	0.119324	
240.5	0.119629	
241	0.121765	
241.5	0.123596	
242	0.124817	
242.5	0.127563	
243	0.128479	
243.5	0.129395	
244	0.131226	
244.5	0.133972	
245	0.136108	
245.5	0.137939	
246	0.139465	
246.5	0.141296	
247	0.143433	
247.5	0.144043	
248	0.145874	
248.5	0.148926	
249	0.149231	
249.5	0.151367	
250	0.153809	
250.5	0.153809	
251	0.15625	
251.5	0.158386	
252	0.159302	
252.5	0.161438	
253	0.163269	
253.5	0.163879	
254	0.166016	
254.5	0.168152	
255	0.168762	
255.5	0.168457	
256	0.170898	
256.5	0.173035	
257	0.174255	
257.5	0.175781	
258	0.177917	
258.5	0.178223	
259	0.180969	
259.5	0.183411	
260	0.184021	
260.5	0.184021	
261	0.185242	
261.5	0.187988	
262	0.188599	
262.5	0.190125	
263	0.192261	
263.5	0.193481	
264	0.193481	
264.5	0.195313	
265	0.196533	
265.5	0.198669	
266	0.19928	
266.5	0.200195	
267	0.202026	
267.5	0.203857	
268	0.205383	
268.5	0.20752	
269	0.20874	
269.5	0.208435	
270	0.209961	
270.5	0.211792	
271	0.213013	
271.5	0.213623	
272	0.213318	
272.5	0.214844	
273	0.21698	
273.5	0.21759	
274	0.217896	
274.5	0.219727	
275	0.222168	
275.5	0.222778	
276	0.222778	
276.5	0.224609	
277	0.226746	
277.5	0.227661	
278	0.228271	
278.5	0.227966	
279	0.228271	
279.5	0.232239	
280	0.233154	
280.5	0.233459	
281	0.232544	
281.5	0.23468	
282	0.237122	
282.5	0.237427	
283	0.236816	
283.5	0.236511	
284	0.237732	
284.5	0.238953	
285	0.241089	
285.5	0.242615	
286	0.24231	
286.5	0.24231	
287	0.24353	
287.5	0.245667	
288	0.246887	
288.5	0.247803	
289	0.247498	
289.5	0.247192	
290	0.248108	
290.5	0.25177	
291	0.25177	
291.5	0.25238	
292	0.253296	
292.5	0.25177	
293	0.252075	
293.5	0.252686	
294	0.255737	
294.5	0.257263	
295	0.257874	
295.5	0.257874	
296	0.257263	
296.5	0.257263	
297	0.256653	
297.5	0.258179	
298	0.26123	
298.5	0.262146	
299	0.262146	
299.5	0.262146	
300	0.262756	
300.5	0.262146	
301	0.262146	
301.5	0.263367	
302	0.265198	
302.5	0.267029	
303	0.267334	
303.5	0.266418	
304	0.266418	
304.5	0.267029	
305	0.267029	
305.5	0.266724	
306	0.267029	
306.5	0.267639	
307	0.270691	
307.5	0.271912	
308	0.272217	
308.5	0.272217	
309	0.271301	
309.5	0.272217	
310	0.271912	
310.5	0.272522	
311	0.271606	
311.5	0.272217	
312	0.271912	
312.5	0.272827	
313	0.272217	
313.5	0.274963	
314	0.276794	
314.5	0.276794	
315	0.2771	
315.5	0.276794	
316	0.2771	
316.5	0.2771	
317	0.276794	
317.5	0.276794	
318	0.27771	
318.5	0.2771	
319	0.276489	
319.5	0.277405	
320	0.27771	
320.5	0.277405	
321	0.2771	
321.5	0.277405	
322	0.2771	
322.5	0.278015	
323	0.276794	
323.5	0.2771	
324	0.276489	
324.5	0.2771	
325	0.2771	
325.5	0.2771	
326	0.280151	
326.5	0.281372	
327	0.281677	
327.5	0.281677	
328	0.282593	
328.5	0.281982	
329	0.281982	
329.5	0.281677	
330	0.281677	
330.5	0.282288	
331	0.281982	
331.5	0.281372	
332	0.281677	
332.5	0.281982	
333	0.282288	
333.5	0.281372	
334	0.282593	
334.5	0.281982	
335	0.281677	
335.5	0.281982	
336	0.281982	
336.5	0.281372	
337	0.281982	
337.5	0.281982	
338	0.281982	
338.5	0.282288	
339	0.281677	
339.5	0.282288	
340	0.282288	
340.5	0.281677	
341	0.281982	
341.5	0.281677	
342	0.281982	
342.5	0.279236	
343	0.27771	
343.5	0.276489	
344	0.277405	
344.5	0.2771	
345	0.276794	
345.5	0.2771	
346	0.276489	
346.5	0.276489	
347	0.2771	
347.5	0.27771	
348	0.277405	
348.5	0.276794	
349	0.277405	
349.5	0.276794	
350	0.276489	
350.5	0.2771	
351	0.277405	
351.5	0.27771	
352	0.276794	
352.5	0.277405	
353	0.277405	
353.5	0.276794	
354	0.276489	
354.5	0.2771	
355	0.2771	
355.5	0.2771	
356	0.276794	
356.5	0.276489	
357	0.276489	
357.5	0.274963	
358	0.273438	
358.5	0.271912	
359	0.272522	
359.5	0.272522	
360	0.271912	
360.5	0.272522	
361	0.272217	
361.5	0.272217	
362	0.271912	
362.5	0.271912	
363	0.272217	
363.5	0.271606	
364	0.271912	
364.5	0.272522	
365	0.272217	
365.5	0.271912	
366	0.270081	
366.5	0.267944	
367	0.267334	
367.5	0.267334	
368	0.267334	
368.5	0.267029	
369	0.267334	
369.5	0.267029	
370	0.266724	
370.5	0.267334	
371	0.266724	
371.5	0.267029	
372	0.267639	
372.5	0.264587	
373	0.263062	
373.5	0.262756	
374	0.262451	
374.5	0.262146	
375	0.263062	
375.5	0.262146	
376	0.262146	
376.5	0.262146	
377	0.262451	
377.5	0.262451	
378	0.26062	
378.5	0.257874	
379	0.256958	
379.5	0.256653	
380	0.257263	
380.5	0.257568	
381	0.257874	
381.5	0.257568	
382	0.257568	
382.5	0.257263	
383	0.255432	
383.5	0.253296	
384	0.25238	
384.5	0.252991	
385	0.25238	
385.5	0.25238	
386	0.25238	
386.5	0.252075	
387	0.252686	
387.5	0.25238	
388	0.250549	
388.5	0.249023	
389	0.247803	
389.5	0.247803	
390	0.247192	
390.5	0.247192	
391	0.247803	
391.5	0.247803	
392	0.246277	
392.5	0.24353	
393	0.24231	
393.5	0.24292	
394	0.242004	
394.5	0.242615	
395	0.24231	
395.5	0.24292	
396	0.242615	
396.5	0.241089	
397	0.238342	
397.5	0.237732	
398	0.237427	
398.5	0.237122	
399	0.237122	
399.5	0.237427	
400	0.236816	
400.5	0.23468	
401	0.232544	
401.5	0.231934	
402	0.233154	
402.5	0.232239	
403	0.232849	
403.5	0.232849	
404	0.231628	
404.5	0.228577	
405	0.228577	
405.5	0.228271	
406	0.227661	
406.5	0.227966	
407	0.227661	
407.5	0.226746	
408	0.224609	
408.5	0.223694	
409	0.222778	
409.5	0.223694	
410	0.223389	
410.5	0.222778	
411	0.222168	
411.5	0.220032	
412	0.218506	
412.5	0.218201	
413	0.217896	
413.5	0.21759	
414	0.217896	
414.5	0.21698	
415	0.214844	
415.5	0.213623	
416	0.212708	
416.5	0.213318	
417	0.213013	
417.5	0.211792	
418	0.209961	
418.5	0.208435	
419	0.20813	
419.5	0.209045	
420	0.208435	
420.5	0.209045	
421	0.208435	
421.5	0.204773	
422	0.203247	
422.5	0.203247	
423	0.204163	
423.5	0.203247	
424	0.202942	
424.5	0.200195	
425	0.198975	
425.5	0.198669	
426	0.198059	
426.5	0.198669	
427	0.198364	
427.5	0.194702	
428	0.194092	
428.5	0.193481	
429	0.193481	
429.5	0.193481	
430	0.192871	
430.5	0.190125	
431	0.188599	
431.5	0.189209	
432	0.188599	
432.5	0.188904	
433	0.188293	
433.5	0.185547	
434	0.184326	
434.5	0.184021	
435	0.183716	
435.5	0.184021	
436	0.183716	
436.5	0.180054	
437	0.179443	
437.5	0.178833	
438	0.179138	
438.5	0.178833	
439	0.178528	
439.5	0.175476	
440	0.173645	
440.5	0.17395	
441	0.173645	
441.5	0.174255	
442	0.17334	
442.5	0.170288	
443	0.169373	
443.5	0.168762	
444	0.168762	
444.5	0.168457	
445	0.168152	
445.5	0.166016	
446	0.164185	
446.5	0.163269	
447	0.163879	
447.5	0.164185	
448	0.163574	
448.5	0.161133	
449	0.159912	
449.5	0.158691	
450	0.159302	
450.5	0.159607	
451	0.159302	
451.5	0.158691	
452	0.15564	
452.5	0.154724	
453	0.154114	
453.5	0.154419	
454	0.154724	
454.5	0.154419	
455	0.151367	
455.5	0.149841	
456	0.149841	
456.5	0.148926	
457	0.149231	
457.5	0.149231	
458	0.146484	
458.5	0.144653	
459	0.144348	
459.5	0.144043	
460	0.144958	
460.5	0.144348	
461	0.141907	
461.5	0.139771	
462	0.140076	
462.5	0.13916	
463	0.138855	
463.5	0.139465	
464	0.138855	
464.5	0.136414	
465	0.134888	
465.5	0.134888	
466	0.135193	
466.5	0.133667	
467	0.134583	
467.5	0.132751	
468	0.13031	
468.5	0.130005	
469	0.128784	
469.5	0.129395	
470	0.129395	
470.5	0.129395	
471	0.126343	
471.5	0.125122	
472	0.125122	
472.5	0.124207	
473	0.124207	
473.5	0.124817	
474	0.121765	
474.5	0.120544	
475	0.120239	
475.5	0.119934	
476	0.119934	
476.5	0.119934	
477	0.119934	
477.5	0.118408	
478	0.115051	
478.5	0.114441	
479	0.114441	
479.5	0.115356	
480	0.114441	
480.5	0.115051	
481	0.11261	
481.5	0.110779	
482	0.109863	
482.5	0.109558	
483	0.109863	
483.5	0.110779	
484	0.109863	
484.5	0.107422	
485	0.105896	
485.5	0.105896	
486	0.10498	
486.5	0.104675	
487	0.105286	
487.5	0.105286	
488	0.103455	
488.5	0.100098	
489	0.100708	
489.5	0.100403	
490	0.100098	
490.5	0.100708	
491	0.100403	
491.5	0.0985718	
492	0.0961304	
492.5	0.09552	
493	0.09552	
493.5	0.0949097	
494	0.0949097	
494.5	0.0946045	
495	0.093689	
495.5	0.0918579	
496	0.0909424	
496.5	0.0897217	
497	0.0900269	
497.5	0.090332	
498	0.090332	
498.5	0.0888062	
499	0.0860596	
499.5	0.0854492	
500	0.0854492	
500.5	0.085144	
501	0.085144	
501.5	0.0854492	
502	0.0842285	
502.5	0.0817871	
503	0.0811768	
503.5	0.0805664	
504	0.0802612	
504.5	0.0814819	
505	0.0805664	
505.5	0.0799561	
506	0.0799561	
506.5	0.0769043	
507	0.0765991	
507.5	0.0769043	
508	0.0762939	
508.5	0.0765991	
509	0.0762939	
509.5	0.0741577	
510	0.0720215	
510.5	0.071106	
511	0.071106	
511.5	0.0714111	
512	0.0714111	
512.5	0.071106	
513	0.0714111	
513.5	0.0701904	
514	0.0671387	
514.5	0.0671387	
515	0.0662231	
515.5	0.0662231	
516	0.065918	
516.5	0.0662231	
517	0.0653076	
517.5	0.062561	
518	0.0619507	
518.5	0.0616455	
519	0.0619507	
519.5	0.0613403	
520	0.0616455	
520.5	0.0619507	
521	0.0598145	
521.5	0.0579834	
522	0.0570679	
522.5	0.0564575	
523	0.0567627	
523.5	0.0567627	
524	0.0567627	
524.5	0.0564575	
525	0.0567627	
525.5	0.0561523	
526	0.0527954	
526.5	0.0518799	
527	0.0521851	
527.5	0.0518799	
528	0.0518799	
528.5	0.0521851	
529	0.0521851	
529.5	0.0506592	
530	0.0476074	
530.5	0.0473022	
531	0.0473022	
531.5	0.0476074	
532	0.0466919	
532.5	0.0469971	
533	0.0469971	
533.5	0.0466919	
534	0.0454712	
534.5	0.0439453	
535	0.0421143	
535.5	0.0424194	
536	0.0418091	
536.5	0.0421143	
537	0.0421143	
537.5	0.0421143	
538	0.0405884	
538.5	0.0378418	
539	0.0369263	
539.5	0.0369263	
540	0.0369263	
540.5	0.0375366	
541	0.0375366	
541.5	0.0366211	
542	0.0366211	
542.5	0.0363159	
543	0.0332642	
543.5	0.0323486	
544	0.0323486	
544.5	0.0317383	
545	0.0317383	
545.5	0.0320435	
546	0.0317383	
546.5	0.0317383	
547	0.0311279	
547.5	0.0296021	
548	0.0271606	
548.5	0.0271606	
549	0.0271606	
549.5	0.0271606	
550	0.0268555	
550.5	0.0271606	
551	0.0271606	
551.5	0.0262451	
552	0.0234985	
552.5	0.022583	
553	0.0222778	
553.5	0.0222778	
554	0.0219727	
554.5	0.0222778	
555	0.0222778	
555.5	0.0222778	
556	0.0216675	
556.5	0.0189209	
557	0.0177002	
557.5	0.0167847	
558	0.0170898	
558.5	0.0170898	
559	0.017395	
559.5	0.017395	
560	0.0177002	
560.5	0.0167847	
561	0.0140381	
561.5	0.012207	
562	0.0125122	
562.5	0.0125122	
563	0.0125122	
563.5	0.0125122	
564	0.0119019	
564.5	0.0119019	
565	0.0119019	
565.5	0.00946045	
566	0.00823975	
566.5	0.00732422	
567	0.00732422	
567.5	0.00762939	
568	0.00732422	
568.5	0.00732422	
569	0.00762939	
569.5	0.00732422	
570	0.00396729	
570.5	0.00274658	
571	0.00274658	
571.5	0.00244141	
572	0.00244141	
572.5	0.00274658	
573	0.00244141	
573.5	0.00274658	
574	0.00213623	
574.5	0.00244141	
575	-0.0012207	
575.5	-0.00213623	
576	-0.00183105	
576.5	-0.00244141	
577	-0.00244141	
577.5	-0.00183105	
578	-0.00244141	
578.5	-0.00274658	
579	-0.00244141	
579.5	-0.00549316	
580	-0.00732422	
580.5	-0.00762939	
581	-0.00701904	
581.5	-0.00671387	
582	-0.00762939	
582.5	-0.00701904	
583	-0.00762939	
583.5	-0.00671387	
584	-0.00762939	
584.5	-0.0109863	
585	-0.0119019	
585.5	-0.0115967	
586	-0.0119019	
586.5	-0.0115967	
587	-0.012207	
587.5	-0.012207	
588	-0.0115967	
588.5	-0.0125122	
589	-0.0125122	
589.5	-0.0149536	
590	-0.0170898	
590.5	-0.0167847	
591	-0.0170898	
591.5	-0.0170898	
592	-0.0170898	
592.5	-0.017395	
593	-0.0170898	
593.5	-0.017395	
594	-0.0167847	
594.5	-0.0198364	
595	-0.0213623	
595.5	-0.0216675	
596	-0.0219727	
596.5	-0.0219727	
597	-0.0216675	
597.5	-0.022583	
598	-0.0222778	
598.5	-0.0222778	
599	-0.0216675	
599.5	-0.0250244	
600	-0.0262451	
600.5	-0.0268555	
601	-0.0271606	
601.5	-0.0268555	
602	-0.0268555	
602.5	-0.0262451	
603	-0.0262451	
603.5	-0.0265503	
604	-0.0271606	
604.5	-0.0299072	
605	-0.0311279	
605.5	-0.0314331	
606	-0.0314331	
606.5	-0.0323486	
607	-0.0320435	
607.5	-0.0317383	
608	-0.0320435	
608.5	-0.0323486	
609	-0.0314331	
609.5	-0.0320435	
610	-0.0338745	
610.5	-0.0360107	
611	-0.0363159	
611.5	-0.0366211	
612	-0.0366211	
612.5	-0.0366211	
613	-0.0357056	
613.5	-0.0366211	
614	-0.0366211	
614.5	-0.0387573	
615	-0.0402832	
615.5	-0.0415039	
616	-0.0415039	
616.5	-0.0418091	
617	-0.0411987	
617.5	-0.0411987	
618	-0.0415039	
618.5	-0.0415039	
619	-0.0418091	
619.5	-0.0418091	
620	-0.0436401	
620.5	-0.0460815	
621	-0.0457764	
621.5	-0.0460815	
622	-0.0463867	
622.5	-0.0460815	
623	-0.0460815	
623.5	-0.0466919	
624	-0.0457764	
624.5	-0.0463867	
625	-0.0460815	
625.5	-0.0466919	
626	-0.0482178	
626.5	-0.050354	
627	-0.0515747	
627.5	-0.0512695	
628	-0.0515747	
628.5	-0.0518799	
629	-0.0515747	
629.5	-0.0509644	
630	-0.0506592	
630.5	-0.0509644	
631	-0.0515747	
631.5	-0.0509644	
632	-0.0527954	
632.5	-0.0549316	
633	-0.0558472	
633.5	-0.0567627	
634	-0.0561523	
634.5	-0.0564575	
635	-0.0564575	
635.5	-0.0561523	
636	-0.0558472	
636.5	-0.0558472	
637	-0.0558472	
637.5	-0.057373	
638	-0.0567627	
638.5	-0.0564575	
639	-0.0582886	
639.5	-0.0601196	
640	-0.0610352	
640.5	-0.0610352	
641	-0.0613403	
641.5	-0.0610352	
642	-0.0610352	
642.5	-0.0610352	
643	-0.0610352	
643.5	-0.0616455	
644	-0.0613403	
644.5	-0.0613403	
645	-0.06073	
645.5	-0.0613403	
646	-0.0601196	
646.5	-0.062561	
647	-0.0650024	
647.5	-0.0662231	
648	-0.0662231	
648.5	-0.0662231	
649	-0.065918	
649.5	-0.065918	
650	-0.065918	
650.5	-0.0668335	
651	-0.065918	
651.5	-0.065918	
652	-0.0656128	
652.5	-0.065918	
653	-0.0662231	
653.5	-0.0662231	
654	-0.065918	
654.5	-0.0674438	
655	-0.0695801	
655.5	-0.0704956	
656	-0.0714111	
656.5	-0.071106	
657	-0.0714111	
657.5	-0.0704956	
658	-0.071106	
658.5	-0.0708008	
659	-0.071106	
659.5	-0.0708008	
660	-0.0708008	
660.5	-0.0708008	
661	-0.0714111	
661.5	-0.0714111	
662	-0.071106	
662.5	-0.0717163	
663	-0.0714111	
663.5	-0.0720215	
664	-0.0747681	
664.5	-0.0756836	
665	-0.0762939	
665.5	-0.0759888	
666	-0.0762939	
666.5	-0.0759888	
667	-0.0750732	
667.5	-0.0753784	
668	-0.0762939	
668.5	-0.0762939	
669	-0.0762939	
669.5	-0.0756836	
670	-0.0756836	
670.5	-0.0759888	
671	-0.0759888	
671.5	-0.0756836	
672	-0.0762939	
672.5	-0.0759888	
673	-0.0750732	
673.5	-0.0756836	
674	-0.0769043	
674.5	-0.0790405	
675	-0.0805664	
675.5	-0.0808716	
676	-0.0817871	
676.5	-0.0814819	
677	-0.0811768	
677.5	-0.0805664	
678	-0.0802612	
678.5	-0.0802612	
679	-0.0811768	
679.5	-0.0799561	
680	-0.0811768	
680.5	-0.0805664	
681	-0.0805664	
681.5	-0.0805664	
682	-0.0805664	
682.5	-0.0811768	
683	-0.0805664	
683.5	-0.0811768	
684	-0.0805664	
684.5	-0.0808716	
685	-0.0802612	
685.5	-0.0808716	
686	-0.0808716	
686.5	-0.0808716	
687	-0.0839233	
687.5	-0.0854492	
688	-0.0848389	
688.5	-0.0860596	
689	-0.0848389	
689.5	-0.0860596	
690	-0.085144	
690.5	-0.0854492	
691	-0.0857544	
691.5	-0.0857544	
692	-0.085144	
692.5	-0.0854492	
693	-0.0854492	
693.5	-0.0857544	
694	-0.0854492	
694.5	-0.085144	
695	-0.0857544	
695.5	-0.0854492	
696	-0.0857544	
696.5	-0.0863647	
697	-0.0857544	
697.5	-0.0854492	
698	-0.0854492	
698.5	-0.0854492	
699	-0.0854492	
699.5	-0.085144	
700	-0.0848389	
700.5	-0.0857544	
701	-0.0857544	
701.5	-0.0857544	
702	-0.085144	
702.5	-0.0854492	
703	-0.0857544	
703.5	-0.0881958	
704	-0.0897217	
704.5	-0.0906372	
705	-0.0906372	
705.5	-0.090332	
706	-0.0900269	
706.5	-0.0909424	
707	-0.0906372	
707.5	-0.090332	
708	-0.090332	
708.5	-0.0906372	
709	-0.0909424	
709.5	-0.090332	
710	-0.090332	
710.5	-0.0909424	
711	-0.090332	
711.5	-0.0900269	
712	-0.090332	
712.5	-0.0909424	
713	-0.0906372	
713.5	-0.090332	
714	-0.090332	
714.5	-0.090332	
715	-0.0906372	
715.5	-0.090332	
716	-0.0906372	
716.5	-0.0906372	
717	-0.0900269	
717.5	-0.090332	
718	-0.0906372	
718.5	-0.0906372	
719	-0.0900269	
719.5	-0.0906372	
720	-0.0909424	
720.5	-0.0897217	
721	-0.0906372	
721.5	-0.0909424	
722	-0.090332	
722.5	-0.0906372	
723	-0.090332	
723.5	-0.0906372	
724	-0.0909424	
724.5	-0.0909424	
725	-0.0909424	
725.5	-0.090332	
726	-0.090332	
726.5	-0.0900269	
727	-0.090332	
727.5	-0.0924683	
728	-0.0942993	
728.5	-0.0949097	
729	-0.0946045	
729.5	-0.0958252	
730	-0.0958252	
730.5	-0.09552	
731	-0.0952148	
731.5	-0.0946045	
732	-0.0958252	
732.5	-0.09552	
733	-0.09552	
733.5	-0.0952148	
734	-0.09552	
734.5	-0.0952148	
735	-0.0958252	
735.5	-0.0952148	
736	-0.0949097	
736.5	-0.0952148	
737	-0.0952148	
737.5	-0.09552	
738	-0.09552	
738.5	-0.09552	
739	-0.0958252	
739.5	-0.0958252	
740	-0.09552	
740.5	-0.0964355	
741	-0.0949097	
741.5	-0.0961304	
742	-0.0952148	
742.5	-0.0949097	
743	-0.0952148	
743.5	-0.09552	
744	-0.09552	
744.5	-0.0946045	
745	-0.0949097	
745.5	-0.0958252	
746	-0.0961304	
746.5	-0.09552	
747	-0.0952148	
747.5	-0.09552	
748	-0.0958252	
748.5	-0.0961304	
749	-0.09552	
749.5	-0.09552	
750	-0.09552	
750.5	-0.0958252	
751	-0.0949097	
751.5	-0.0952148	
752	-0.0952148	
752.5	-0.09552	
753	-0.0958252	
753.5	-0.0952148	
754	-0.0949097	
754.5	-0.09552	
755	-0.0958252	
755.5	-0.09552	
756	-0.09552	
756.5	-0.0961304	
757	-0.0952148	
757.5	-0.09552	
758	-0.09552	
758.5	-0.0952148	
759	-0.0949097	
759.5	-0.0949097	
760	-0.0952148	
760.5	-0.0952148	
761	-0.09552	
761.5	-0.09552	
762	-0.0958252	
762.5	-0.0961304	
763	-0.09552	
763.5	-0.0952148	
764	-0.0946045	
764.5	-0.0958252	
765	-0.09552	
765.5	-0.0949097	
766	-0.09552	
766.5	-0.0949097	
767	-0.0949097	
767.5	-0.0952148	
768	-0.0958252	
768.5	-0.0952148	
769	-0.0946045	
769.5	-0.0952148	
770	-0.09552	
770.5	-0.0952148	
771	-0.0958252	
771.5	-0.0958252	
772	-0.0952148	
772.5	-0.09552	
773	-0.09552	
773.5	-0.0952148	
774	-0.0949097	
774.5	-0.09552	
775	-0.0949097	
775.5	-0.0952148	
776	-0.0952148	
776.5	-0.0949097	
777	-0.0952148	
777.5	-0.09552	
778	-0.0952148	
778.5	-0.0952148	
779	-0.0949097	
779.5	-0.09552	
780	-0.0952148	
780.5	-0.09552	
781	-0.0952148	
781.5	-0.09552	
782	-0.09552	
782.5	-0.0958252	
783	-0.0949097	
783.5	-0.0952148	
784	-0.0958252	
784.5	-0.0949097	
785	-0.0949097	
785.5	-0.09552	
786	-0.0952148	
786.5	-0.09552	
787	-0.0958252	
787.5	-0.0952148	
788	-0.0949097	
788.5	-0.0949097	
789	-0.0949097	
789.5	-0.0958252	
790	-0.0958252	
790.5	-0.0949097	
791	-0.0958252	
791.5	-0.0958252	
792	-0.0958252	
792.5	-0.0961304	
793	-0.0949097	
793.5	-0.0952148	
794	-0.0949097	
794.5	-0.0952148	
795	-0.09552	
795.5	-0.09552	
796	-0.09552	
796.5	-0.0952148	
797	-0.0949097	
797.5	-0.0949097	
798	-0.09552	
798.5	-0.09552	
799	-0.0949097	
799.5	-0.09552	
800	-0.0961304	
800.5	-0.0958252	
801	-0.0949097	
801.5	-0.0942993	
802	-0.09552	
802.5	-0.0952148	
803	-0.09552	
803.5	-0.09552	
804	-0.0949097	
804.5	-0.09552	
805	-0.0949097	
805.5	-0.0949097	
806	-0.09552	
806.5	-0.09552	
807	-0.0952148	
807.5	-0.0952148	
808	-0.0952148	
808.5	-0.09552	
809	-0.0958252	
809.5	-0.0952148	
810	-0.0952148	
810.5	-0.0949097	
811	-0.0958252	
811.5	-0.0952148	
812	-0.0952148	
812.5	-0.09552	
813	-0.09552	
813.5	-0.09552	
814	-0.09552	
814.5	-0.09552	
815	-0.09552	
815.5	-0.09552	
816	-0.0952148	
816.5	-0.09552	
817	-0.0952148	
817.5	-0.0949097	
818	-0.09552	
818.5	-0.09552	
819	-0.09552	
819.5	-0.09552	
820	-0.09552	
820.5	-0.0949097	
821	-0.0958252	
821.5	-0.0961304	
822	-0.0952148	
822.5	-0.0949097	
823	-0.0952148	
823.5	-0.09552	
824	-0.0949097	
824.5	-0.09552	
825	-0.0952148	
825.5	-0.0949097	
826	-0.0958252	
826.5	-0.0952148	
827	-0.0949097	
827.5	-0.0961304	
828	-0.0952148	
828.5	-0.09552	
829	-0.09552	
829.5	-0.0952148	
830	-0.0952148	
830.5	-0.09552	
831	-0.0949097	
831.5	-0.0958252	
832	-0.0949097	
832.5	-0.0958252	
833	-0.0979614	
833.5	-0.0994873	
834	-0.100403	
834.5	-0.100708	
835	-0.0994873	
835.5	-0.100403	
836	-0.100403	
836.5	-0.100098	
837	-0.100098	
837.5	-0.100098	
838	-0.100098	
838.5	-0.100708	
839	-0.100708	
839.5	-0.0997925	
840	-0.100403	
840.5	-0.100403	
841	-0.100098	
841.5	-0.100403	
842	-0.0997925	
842.5	-0.0997925	
843	-0.100098	
843.5	-0.100098	
844	-0.0997925	
844.5	-0.100403	
845	-0.100708	
845.5	-0.100098	
846	-0.100708	
846.5	-0.100403	
847	-0.100708	
847.5	-0.100403	
848	-0.0997925	
848.5	-0.100098	
849	-0.100403	
849.5	-0.0994873	
850	-0.100403	
850.5	-0.100403	
851	-0.100403	
851.5	-0.100098	
852	-0.100098	
852.5	-0.0997925	
853	-0.100098	
853.5	-0.100403	
854	-0.100708	
854.5	-0.100098	
855	-0.100098	
855.5	-0.100403	
856	-0.100403	
856.5	-0.0997925	
857	-0.100708	
857.5	-0.100403	
858	-0.100708	
858.5	-0.100098	
859	-0.100403	
859.5	-0.100403	
860	-0.100708	
860.5	-0.100098	
861	-0.100403	
861.5	-0.100098	
862	-0.100403	
862.5	-0.100098	
863	-0.100708	
863.5	-0.100403	
864	-0.102539	
864.5	-0.10437	
865	-0.104675	
865.5	-0.10498	
866	-0.10498	
866.5	-0.10498	
867	-0.10437	
867.5	-0.105286	
868	-0.105286	
868.5	-0.105286	
869	-0.10437	
869.5	-0.10437	
870	-0.105286	
870.5	-0.106201	
871	-0.105286	
871.5	-0.105286	
872	-0.104675	
872.5	-0.10498	
873	-0.10498	
873.5	-0.10498	
874	-0.105286	
874.5	-0.10437	
875	-0.105591	
875.5	-0.10437	
876	-0.104675	
876.5	-0.105286	
877	-0.10498	
877.5	-0.105286	
878	-0.104675	
878.5	-0.10498	
879	-0.104675	
879.5	-0.10498	
880	-0.105896	
880.5	-0.105286	
881	-0.105591	
881.5	-0.10498	
882	-0.105591	
882.5	-0.105286	
883	-0.105286	
883.5	-0.104675	
884	-0.10498	
884.5	-0.10498	
885	-0.10498	
885.5	-0.10437	
886	-0.10498	
886.5	-0.10498	
887	-0.105591	
887.5	-0.10498	
888	-0.10498	
888.5	-0.104675	
889	-0.104675	
889.5	-0.105591	
890	-0.104675	
890.5	-0.105591	
891	-0.10437	
891.5	-0.10498	
892	-0.105286	
892.5	-0.10498	
893	-0.104065	
893.5	-0.105286	
894	-0.105286	
894.5	-0.104675	
895	-0.105591	
895.5	-0.105286	
896	-0.10498	
896.5	-0.10437	
897	-0.106812	
897.5	-0.108948	
898	-0.109558	
898.5	-0.110474	
899	-0.109863	
899.5	-0.110474	
900	-0.110474	
900.5	-0.109863	
901	-0.110474	
901.5	-0.109558	
902	-0.110168	
902.5	-0.110168	
903	-0.110168	
903.5	-0.109863	
904	-0.110168	
904.5	-0.110474	
905	-0.110168	
905.5	-0.110474	
906	-0.110168	
906.5	-0.109558	
907	-0.110779	
907.5	-0.110168	
908	-0.109558	
908.5	-0.109863	
909	-0.110474	
909.5	-0.109863	
910	-0.109863	
910.5	-0.110474	
911	-0.109558	
911.5	-0.110168	
912	-0.110168	
912.5	-0.110474	
913	-0.110168	
913.5	-0.110168	
914	-0.109863	
914.5	-0.110168	
915	-0.110779	
915.5	-0.110474	
916	-0.109558	
916.5	-0.109863	
917	-0.110168	
917.5	-0.109863	
918	-0.109558	
918.5	-0.110168	
919	-0.110474	
919.5	-0.110168	
920	-0.110474	
920.5	-0.109863	
921	-0.110168	
921.5	-0.109863	
922	-0.110474	
922.5	-0.109558	
923	-0.109558	
923.5	-0.109863	
924	-0.110474	
924.5	-0.110779	
925	-0.109863	
925.5	-0.110168	
926	-0.110168	
926.5	-0.110168	
927	-0.110168	
927.5	-0.110474	
928	-0.109253	
928.5	-0.106201	
929	-0.104675	
929.5	-0.10437	
930	-0.105591	
930.5	-0.105591	
931	-0.105591	
931.5	-0.105286	
932	-0.10498	
932.5	-0.105896	
933	-0.105286	
933.5	-0.105286	
934	-0.105591	
934.5	-0.10498	
935	-0.105286	
935.5	-0.104675	
936	-0.10498	
936.5	-0.10498	
937	-0.105286	
937.5	-0.10437	
938	-0.102539	
938.5	-0.100403	
939	-0.100098	
939.5	-0.100403	
940	-0.100403	
940.5	-0.100098	
941	-0.100098	
941.5	-0.0997925	
942	-0.0997925	
942.5	-0.0997925	
943	-0.100098	
943.5	-0.0967407	
944	-0.0961304	
944.5	-0.09552	
945	-0.0952148	
945.5	-0.09552	
946	-0.0958252	
946.5	-0.0949097	
947	-0.0952148	
947.5	-0.09552	
948	-0.0915527	
948.5	-0.0909424	
949	-0.0906372	
949.5	-0.090332	
950	-0.0906372	
950.5	-0.0906372	
951	-0.0900269	
951.5	-0.0872803	
952	-0.0854492	
952.5	-0.0863647	
953	-0.0848389	
953.5	-0.0854492	
954	-0.0860596	
954.5	-0.0830078	
955	-0.0811768	
955.5	-0.0808716	
956	-0.0802612	
956.5	-0.0805664	
957	-0.0775146	
957.5	-0.0756836	
958	-0.0759888	
958.5	-0.0759888	
959	-0.0762939	
959.5	-0.0735474	
960	-0.0714111	
960.5	-0.0714111	
961	-0.0714111	
961.5	-0.0683594	
962	-0.0665283	
962.5	-0.0662231	
963	-0.065918	
963.5	-0.0665283	
964	-0.0637817	
964.5	-0.06073	
965	-0.0613403	
965.5	-0.06073	
966	-0.0582886	
966.5	-0.0567627	
967	-0.0558472	
967.5	-0.0531006	
968	-0.0515747	
968.5	-0.0512695	
969	-0.0512695	
969.5	-0.0491333	
970	-0.0473022	
970.5	-0.0466919	
971	-0.043335	
971.5	-0.0415039	
972	-0.0415039	
972.5	-0.0411987	
973	-0.0384521	
973.5	-0.0369263	
974	-0.0366211	
974.5	-0.03479	
975	-0.032959	
975.5	-0.0317383	
976	-0.0286865	
976.5	-0.0271606	
977	-0.0268555	
977.5	-0.0244141	
978	-0.0231934	
978.5	-0.0222778	
979	-0.0195313	
979.5	-0.0177002	
980	-0.0170898	
980.5	-0.0146484	
981	-0.0128174	
981.5	-0.0119019	
982	-0.00976563	
982.5	-0.00762939	
983	-0.00732422	
983.5	-0.00488281	
984	-0.00305176	
984.5	0	
985	0.00213623	
985.5	0.00244141	
986	0.00396729	
986.5	0.00701904	
987	0.00732422	
987.5	0.010376	
988	0.0112915	
988.5	0.0140381	
989	0.0177002	
989.5	0.017395	
990	0.0195313	
990.5	0.0210571	
991	0.0234985	
991.5	0.0256348	
992	0.0271606	
992.5	0.0292969	
993	0.0320435	
993.5	0.032959	
994	0.0344849	
994.5	0.0363159	
995	0.0390625	
995.5	0.0418091	
996	0.0421143	
996.5	0.0442505	
997	0.0460815	
997.5	0.0494385	
998	0.0509644	
998.5	0.0521851	
999	0.0543213	
999.5	0.0558472	
1000	0.0588989	
1000.5	0.0610352	
1001	0.0610352	
1001.5	0.0634766	
1002	0.0653076	
1002.5	0.0683594	
1003	0.0701904	
1003.5	0.071106	
1004	0.072937	
1004.5	0.0753784	
1005	0.078125	
1005.5	0.0793457	
1006	0.0799561	
1006.5	0.0817871	
1007	0.0848389	
1007.5	0.0869751	
1008	0.0894165	
1008.5	0.0906372	
1009	0.0924683	
1009.5	0.0946045	
1010	0.0973511	
1010.5	0.0994873	
1011	0.0994873	
1011.5	0.101318	
1012	0.104065	
1012.5	0.106506	
1013	0.109253	
1013.5	0.109863	
1014	0.111694	
1014.5	0.114441	
1015	0.116577	
1015.5	0.119019	
1016	0.119629	
1016.5	0.12207	
1017	0.123291	
1017.5	0.124512	
1018	0.126343	
1018.5	0.128784	
1019	0.131531	
1019.5	0.133972	
1020	0.134888	
1020.5	0.135498	
1021	0.138245	
1021.5	0.139465	
1022	0.140991	
1022.5	0.144043	
1023	0.144043	
1023.5	0.145874	
1024	0.148315	
1024.5	0.150452	
1025	0.153198	
1025.5	0.154419	
1026	0.15564	
1026.5	0.157471	
1027	0.159302	
1027.5	0.160828	
1028	0.163269	
1028.5	0.163879	
1029	0.165405	
1029.5	0.167236	
1030	0.169067	
1030.5	0.169678	
1031	0.172119	
1031.5	0.173645	
1032	0.173645	
1032.5	0.175476	
1033	0.177917	
1033.5	0.178528	
1034	0.180054	
1034.5	0.183105	
1035	0.184021	
1035.5	0.184631	
1036	0.187378	
1036.5	0.188904	
1037	0.188599	
1037.5	0.189514	
1038	0.192261	
1038.5	0.193176	
1039	0.194397	
1039.5	0.196838	
1040	0.198364	
1040.5	0.198975	
1041	0.199585	
1041.5	0.202332	
1042	0.203247	
1042.5	0.203247	
1043	0.204163	
1043.5	0.207214	
1044	0.208435	
1044.5	0.208435	
1045	0.209045	
1045.5	0.212097	
1046	0.213013	
1046.5	0.213318	
1047	0.213623	
1047.5	0.21637	
1048	0.217896	
1048.5	0.218201	
1049	0.218811	
1049.5	0.221863	
1050	0.223389	
1050.5	0.222473	
1051	0.223083	
1051.5	0.223999	
1052	0.226135	
1052.5	0.228271	
1053	0.228577	
1053.5	0.227966	
1054	0.228577	
1054.5	0.231323	
1055	0.233154	
1055.5	0.232544	
1056	0.232849	
1056.5	0.233154	
1057	0.236511	
1057.5	0.237427	
1058	0.237732	
1058.5	0.238037	
1059	0.237427	
1059.5	0.237732	
1060	0.240784	
1060.5	0.242004	
1061	0.24292	
1061.5	0.24231	
1062	0.242615	
1062.5	0.24292	
1063	0.246277	
1063.5	0.247192	
1064	0.247498	
1064.5	0.247498	
1065	0.247498	
1065.5	0.246887	
1066	0.247498	
1066.5	0.25116	
1067	0.251465	
1067.5	0.25177	
1068	0.252686	
1068.5	0.25238	
1069	0.252075	
1069.5	0.252991	
1070	0.255127	
1070.5	0.257263	
1071	0.257263	
1071.5	0.257568	
1072	0.257263	
1072.5	0.257568	
1073	0.257263	
1073.5	0.257568	
1074	0.257263	
1074.5	0.26062	
1075	0.262146	
1075.5	0.262146	
1076	0.262756	
1076.5	0.261536	
1077	0.261841	
1077.5	0.261841	
1078	0.262756	
1078.5	0.262146	
1079	0.261841	
1079.5	0.262451	
1080	0.265503	
1080.5	0.266418	
1081	0.267334	
1081.5	0.266724	
1082	0.267944	
1082.5	0.267029	
1083	0.267334	
1083.5	0.266724	
1084	0.267029	
1084.5	0.267334	
1085	0.267029	
1085.5	0.266724	
1086	0.267029	
1086.5	0.267029	
1087	0.266724	
1087.5	0.270081	
1088	0.271912	
1088.5	0.271301	
1089	0.271606	
1089.5	0.271606	
1090	0.272827	
1090.5	0.271606	
1091	0.271912	
1091.5	0.271912	
1092	0.271912	
1092.5	0.272217	
1093	0.271606	
1093.5	0.272827	
1094	0.271912	
1094.5	0.272522	
1095	0.272217	
1095.5	0.271912	
1096	0.271912	
1096.5	0.271301	
1097	0.272522	
1097.5	0.272522	
1098	0.271912	
1098.5	0.272217	
1099	0.272522	
1099.5	0.271912	
1100	0.271301	
1100.5	0.271912	
1101	0.272217	
1101.5	0.271606	
1102	0.272522	
1102.5	0.272217	
1103	0.271606	
1103.5	0.271606	
1104	0.271912	
1104.5	0.271912	
1105	0.272217	
1105.5	0.272522	
1106	0.271912	
1106.5	0.272522	
1107	0.271912	
1107.5	0.271912	
1108	0.271606	
1108.5	0.271912	
1109	0.272522	
1109.5	0.272522	
1110	0.272217	
1110.5	0.272522	
1111	0.271912	
1111.5	0.271606	
1112	0.271912	
1112.5	0.272217	
1113	0.272217	
1113.5	0.272522	
1114	0.272217	
1114.5	0.272217	
1115	0.272522	
1115.5	0.272827	
1116	0.272522	
1116.5	0.271912	
1117	0.272217	
1117.5	0.272217	
1118	0.272522	
1118.5	0.272217	
1119	0.272522	
1119.5	0.273132	
1120	0.271912	
1120.5	0.272217	
1121	0.271606	
1121.5	0.271912	
1122	0.272827	
1122.5	0.272827	
1123	0.272217	
1123.5	0.272217	
1124	0.272522	
1124.5	0.271912	
1125	0.271912	
1125.5	0.271606	
1126	0.272217	
1126.5	0.272217	
1127	0.272217	
1127.5	0.272522	
1128	0.272522	
1128.5	0.272827	
1129	0.271912	
1129.5	0.271912	
1130	0.269775	
1130.5	0.26825	
1131	0.26825	
1131.5	0.266724	
1132	0.267029	
1132.5	0.267334	
1133	0.267334	
1133.5	0.267334	
1134	0.267334	
1134.5	0.267029	
1135	0.267334	
1135.5	0.266724	
1136	0.267639	
1136.5	0.267334	
1137	0.267029	
1137.5	0.267334	
1138	0.267334	
1138.5	0.267029	
1139	0.267334	
1139.5	0.266724	
1140	0.265808	
1140.5	0.262756	
1141	0.262756	
1141.5	0.262146	
1142	0.262756	
1142.5	0.262451	
1143	0.262451	
1143.5	0.262146	
1144	0.262451	
1144.5	0.261536	
1145	0.262451	
1145.5	0.262146	
1146	0.262146	
1146.5	0.262756	
1147	0.262451	
1147.5	0.261536	
1148	0.257874	
1148.5	0.257568	
1149	0.257568	
1149.5	0.257568	
1150	0.256958	
1150.5	0.257263	
1151	0.257874	
1151.5	0.257874	
1152	0.257263	
1152.5	0.257263	
1153	0.257568	
1153.5	0.257874	
1154	0.255737	
1154.5	0.253906	
1155	0.252991	
1155.5	0.252075	
1156	0.252075	
1156.5	0.252991	
1157	0.25177	
1157.5	0.25238	
1158	0.25238	
1158.5	0.252686	
1159	0.252686	
1159.5	0.252686	
1160	0.25177	
1160.5	0.249023	
1161	0.248108	
1161.5	0.247192	
1162	0.246887	
1162.5	0.247803	
1163	0.247498	
1163.5	0.247803	
1164	0.247498	
1164.5	0.247498	
1165	0.246887	
1165.5	0.24353	
1166	0.24292	
1166.5	0.242004	
1167	0.242615	
1167.5	0.242615	
1168	0.24231	
1168.5	0.242004	
1169	0.24231	
1169.5	0.242615	
1170	0.242004	
1170.5	0.238647	
1171	0.238037	
1171.5	0.237427	
1172	0.237122	
1172.5	0.237122	
1173	0.237122	
1173.5	0.237732	
1174	0.236511	
1174.5	0.23468	
1175	0.233154	
1175.5	0.232849	
1176	0.232544	
1176.5	0.232849	
1177	0.233154	
1177.5	0.232544	
1178	0.231628	
1178.5	0.229492	
1179	0.227661	
1179.5	0.228271	
1180	0.227966	
1180.5	0.227051	
1181	0.228577	
1181.5	0.227661	
1182	0.227356	
1182.5	0.224915	
1183	0.223694	
1183.5	0.223389	
1184	0.223083	
1184.5	0.223083	
1185	0.223083	
1185.5	0.221863	
1186	0.220032	
1186.5	0.218201	
1187	0.218506	
1187.5	0.218201	
1188	0.217896	
1188.5	0.21759	
1189	0.217896	
1189.5	0.214844	
1190	0.213623	
1190.5	0.213318	
1191	0.213318	
1191.5	0.213013	
1192	0.212708	
1192.5	0.210571	
1193	0.209351	
1193.5	0.208435	
1194	0.20874	
1194.5	0.208435	
1195	0.20813	
1195.5	0.205078	
1196	0.203552	
1196.5	0.203857	
1197	0.203857	
1197.5	0.203247	
1198	0.203857	
1198.5	0.203552	
1199	0.200195	
1199.5	0.19928	
1200	0.198364	
1200.5	0.198975	
1201	0.198059	
1201.5	0.195618	
1202	0.193787	
1202.5	0.193787	
1203	0.192871	
1203.5	0.193176	
1204	0.193176	
1204.5	0.19043	
1205	0.188599	
1205.5	0.188904	
1206	0.188599	
1206.5	0.188293	
1207	0.188599	
1207.5	0.185852	
1208	0.184326	
1208.5	0.184021	
1209	0.183105	
1209.5	0.184021	
1210	0.183716	
1210.5	0.180969	
1211	0.179138	
1211.5	0.178833	
1212	0.179138	
1212.5	0.178833	
1213	0.176392	
1213.5	0.17395	
1214	0.17395	
1214.5	0.174255	
1215	0.173645	
1215.5	0.17395	
1216	0.170593	
1216.5	0.169983	
1217	0.169678	
1217.5	0.168457	
1218	0.168457	
1218.5	0.168457	
1219	0.166931	
1219.5	0.164185	
1220	0.164185	
1220.5	0.164185	
1221	0.163879	
1221.5	0.160828	
1222	0.159912	
1222.5	0.158997	
1223	0.159302	
1223.5	0.159607	
1224	0.159302	
1224.5	0.15625	
1225	0.155029	
1225.5	0.154724	
1226	0.154724	
1226.5	0.154419	
1227	0.154114	
1227.5	0.151978	
1228	0.149536	
1228.5	0.149536	
1229	0.149841	
1229.5	0.148621	
1230	0.149841	
1230.5	0.1474	
1231	0.145264	
1231.5	0.144958	
1232	0.144043	
1232.5	0.144653	
1233	0.144653	
1233.5	0.141907	
1234	0.140076	
1234.5	0.140076	
1235	0.139771	
1235.5	0.139465	
1236	0.139465	
1236.5	0.137329	
1237	0.135193	
1237.5	0.134583	
1238	0.134583	
1238.5	0.134277	
1239	0.134888	
1239.5	0.132446	
1240	0.130005	
1240.5	0.130005	
1241	0.129395	
1241.5	0.129395	
1242	0.130615	
1242.5	0.1297	
1243	0.127563	
1243.5	0.125427	
1244	0.124817	
1244.5	0.124512	
1245	0.125122	
1245.5	0.125122	
1246	0.122681	
1246.5	0.121155	
1247	0.119934	
1247.5	0.119934	
1248	0.119934	
1248.5	0.119629	
1249	0.119934	
1249.5	0.118103	
1250	0.115967	
1250.5	0.115051	
1251	0.115051	
1251.5	0.115051	
1252	0.115051	
1252.5	0.115356	
1253	0.11261	
1253.5	0.110779	
1254	0.110168	
1254.5	0.110779	
1255	0.110168	
1255.5	0.110779	
1256	0.109863	
1256.5	0.108643	
1257	0.105896	
1257.5	0.105286	
1258	0.105591	
1258.5	0.105591	
1259	0.105286	
1259.5	0.105286	
1260	0.103149	
1260.5	0.100708	
1261	0.100403	
1261.5	0.100403	
1262	0.100098	
1262.5	0.100098	
1263	0.100403	
1263.5	0.100403	
1264	0.0985718	
1264.5	0.0967407	
1265	0.09552	
1265.5	0.0958252	
1266	0.0949097	
1266.5	0.0952148	
1267	0.09552	
1267.5	0.09552	
1268	0.0939941	
1268.5	0.0918579	
1269	0.0906372	
1269.5	0.0906372	
1270	0.090332	
1270.5	0.090332	
1271	0.090332	
1271.5	0.090332	
1272	0.088501	
1272.5	0.0863647	
1273	0.0860596	
1273.5	0.0854492	
1274	0.0857544	
1274.5	0.0857544	
1275	0.0860596	
1275.5	0.0857544	
1276	0.0839233	
1276.5	0.0820923	
1277	0.0799561	
1277.5	0.0808716	
1278	0.0805664	
1278.5	0.0802612	
1279	0.0799561	
1279.5	0.0811768	
1280	0.0796509	
1280.5	0.0778198	
1281	0.0765991	
1281.5	0.0756836	
1282	0.0762939	
1282.5	0.0765991	
1283	0.0765991	
1283.5	0.0762939	
1284	0.0762939	
1284.5	0.0753784	
1285	0.0726318	
1285.5	0.0723267	
1286	0.071106	
1286.5	0.071106	
1287	0.071106	
1287.5	0.0717163	
1288	0.0720215	
1288.5	0.0714111	
1289	0.0704956	
1289.5	0.0683594	
1290	0.0671387	
1290.5	0.065918	
1291	0.0668335	
1291.5	0.0665283	
1292	0.0668335	
1292.5	0.0662231	
1293	0.065918	
1293.5	0.065918	
1294	0.0622559	
1294.5	0.0619507	
1295	0.0610352	
1295.5	0.0619507	
1296	0.0610352	
1296.5	0.0613403	
1297	0.0619507	
1297.5	0.0616455	
1298	0.0610352	
1298.5	0.0576782	
1299	0.0561523	
1299.5	0.057373	
1300	0.0567627	
1300.5	0.0564575	
1301	0.057373	
1301.5	0.0564575	
1302	0.0567627	
1302.5	0.0561523	
1303	0.0537109	
1303.5	0.0524902	
1304	0.0518799	
1304.5	0.0515747	
1305	0.0518799	
1305.5	0.0515747	
1306	0.0512695	
1306.5	0.0515747	
1307	0.0512695	
1307.5	0.0518799	
1308	0.0488281	
1308.5	0.0473022	
1309	0.0466919	
1309.5	0.0466919	
1310	0.0473022	
1310.5	0.0469971	
1311	0.0469971	
1311.5	0.0466919	
1312	0.0466919	
1312.5	0.0460815	
1313	0.0439453	
1313.5	0.0421143	
1314	0.0421143	
1314.5	0.0421143	
1315	0.0418091	
1315.5	0.0421143	
1316	0.0418091	
1316.5	0.0421143	
1317	0.0415039	
1317.5	0.0393677	
1318	0.0372314	
1318.5	0.0372314	
1319	0.0366211	
1319.5	0.0369263	
1320	0.0372314	
1320.5	0.0372314	
1321	0.0369263	
1321.5	0.0372314	
1322	0.0369263	
1322.5	0.0338745	
1323	0.032959	
1323.5	0.0320435	
1324	0.0317383	
1324.5	0.0317383	
1325	0.0323486	
1325.5	0.0320435	
1326	0.0320435	
1326.5	0.0320435	
1327	0.0283813	
1327.5	0.0274658	
1328	0.0274658	
1328.5	0.0265503	
1329	0.0271606	
1329.5	0.0268555	
1330	0.0271606	
1330.5	0.0268555	
1331	0.0271606	
1331.5	0.0271606	
1332	0.0241089	
1332.5	0.022583	
1333	0.0222778	
1333.5	0.022583	
1334	0.0228882	
1334.5	0.0216675	
1335	0.0216675	
1335.5	0.0219727	
1336	0.0219727	
1336.5	0.0219727	
1337	0.0186157	
1337.5	0.0170898	
1338	0.017395	
1338.5	0.0164795	
1339	0.0177002	
1339.5	0.0170898	
1340	0.0177002	
1340.5	0.0170898	
1341	0.017395	
1341.5	0.0177002	
1342	0.0146484	
1342.5	0.0128174	
1343	0.0128174	
1343.5	0.0125122	
1344	0.012207	
1344.5	0.0128174	
1345	0.0125122	
1345.5	0.012207	
1346	0.0125122	
1346.5	0.012207	
1347	0.012207	
1347.5	0.00976563	
1348	0.00823975	
1348.5	0.00732422	
1349	0.00701904	
1349.5	0.00793457	
1350	0.00793457	
1350.5	0.00671387	
1351	0.00793457	
1351.5	0.00762939	
1352	0.00762939	
1352.5	0.00732422	
1353	0.00488281	
1353.5	0.00305176	
1354	0.00244141	
1354.5	0.00244141	
1355	0.00274658	
1355.5	0.00244141	
1356	0.00274658	
1356.5	0.00274658	
1357	0.00244141	
1357.5	0.00274658	
1358	0.00274658	
1358.5	0.00244141	
1359	0.000305176	
1359.5	-0.00152588	
1360	-0.00183105	
1360.5	-0.00213623	
1361	-0.00213623	
1361.5	-0.00244141	
1362	-0.00213623	
1362.5	-0.00183105	
1363	-0.00244141	
1363.5	-0.00183105	
1364	-0.00213623	
1364.5	-0.00213623	
1365	-0.00457764	
1365.5	-0.00640869	
1366	-0.00701904	
1366.5	-0.00701904	
1367	-0.00671387	
1367.5	-0.00762939	
1368	-0.00701904	
1368.5	-0.00762939	
1369	-0.00732422	
1369.5	-0.00732422	
1370	-0.00762939	
1370.5	-0.00701904	
1371	-0.00762939	
1371.5	-0.00946045	
1372	-0.0115967	
1372.5	-0.0115967	
1373	-0.0119019	
1373.5	-0.0119019	
1374	-0.0119019	
1374.5	-0.012207	
1375	-0.012207	
1375.5	-0.0119019	
1376	-0.012207	
1376.5	-0.012207	
1377	-0.012207	
1377.5	-0.0125122	
1378	-0.0137329	
1378.5	-0.0158691	
1379	-0.0170898	
1379.5	-0.0177002	
1380	-0.0177002	
1380.5	-0.0170898	
1381	-0.0170898	
1381.5	-0.017395	
1382	-0.017395	
1382.5	-0.0167847	
1383	-0.0167847	
1383.5	-0.0164795	
1384	-0.017395	
1384.5	-0.0186157	
1385	-0.020752	
1385.5	-0.0216675	
1386	-0.0219727	
1386.5	-0.0219727	
1387	-0.0222778	
1387.5	-0.0216675	
1388	-0.0216675	
1388.5	-0.0219727	
1389	-0.0219727	
1389.5	-0.0219727	
1390	-0.0219727	
1390.5	-0.0219727	
1391	-0.0222778	
1391.5	-0.0234985	
1392	-0.0259399	
1392.5	-0.0259399	
1393	-0.0268555	
1393.5	-0.0268555	
1394	-0.0262451	
1394.5	-0.0268555	
1395	-0.0265503	
1395.5	-0.0271606	
1396	-0.0268555	
1396.5	-0.0268555	
1397	-0.0268555	
1397.5	-0.0268555	
1398	-0.0268555	
1398.5	-0.0286865	
1399	-0.0308228	
1399.5	-0.0311279	
1400	-0.0323486	
1400.5	-0.0320435	
1401	-0.0314331	
1401.5	-0.0320435	
1402	-0.0317383	
1402.5	-0.0317383	
1403	-0.0317383	
1403.5	-0.0317383	
1404	-0.0317383	
1404.5	-0.0317383	
1405	-0.0320435	
1405.5	-0.0335693	
1406	-0.0357056	
1406.5	-0.0363159	
1407	-0.0366211	
1407.5	-0.0369263	
1408	-0.0366211	
1408.5	-0.0369263	
1409	-0.0363159	
1409.5	-0.0360107	
1410	-0.0366211	
1410.5	-0.0366211	
1411	-0.0363159	
1411.5	-0.0369263	
1412	-0.0369263	
1412.5	-0.0366211	
1413	-0.0378418	
1413.5	-0.0390625	
1414	-0.0408936	
1414.5	-0.0411987	
1415	-0.0415039	
1415.5	-0.0418091	
1416	-0.0408936	
1416.5	-0.0415039	
1417	-0.0415039	
1417.5	-0.0418091	
1418	-0.0418091	
1418.5	-0.0418091	
1419	-0.0415039	
1419.5	-0.0411987	
1420	-0.0415039	
1420.5	-0.0421143	
1421	-0.0454712	
1421.5	-0.0457764	
1422	-0.0460815	
1422.5	-0.0469971	
1423	-0.0469971	
1423.5	-0.0463867	
1424	-0.0469971	
1424.5	-0.0457764	
1425	-0.0457764	
1425.5	-0.0457764	
1426	-0.0457764	
1426.5	-0.0469971	
1427	-0.0460815	
1427.5	-0.0460815	
1428	-0.0466919	
1428.5	-0.0463867	
1429	-0.0473022	
1429.5	-0.050354	
1430	-0.0506592	
1430.5	-0.0512695	
1431	-0.0512695	
1431.5	-0.0515747	
1432	-0.0512695	
1432.5	-0.0512695	
1433	-0.0506592	
1433.5	-0.0509644	
1434	-0.0512695	
1434.5	-0.0512695	
1435	-0.0512695	
1435.5	-0.0515747	
1436	-0.0515747	
1436.5	-0.0521851	
1437	-0.0515747	
1437.5	-0.0518799	
1438	-0.055542	
1438.5	-0.0558472	
1439	-0.0558472	
1439.5	-0.0561523	
1440	-0.0558472	
1440.5	-0.0564575	
1441	-0.0564575	
1441.5	-0.0564575	
1442	-0.0561523	
1442.5	-0.0561523	
1443	-0.0564575	
1443.5	-0.0561523	
1444	-0.0564575	
1444.5	-0.0561523	
1445	-0.0558472	
1445.5	-0.0567627	
1446	-0.0564575	
1446.5	-0.0567627	
1447	-0.0567627	
1447.5	-0.0567627	
1448	-0.0567627	
1448.5	-0.0598145	
1449	-0.0613403	
1449.5	-0.0613403	
1450	-0.0613403	
1450.5	-0.0613403	
1451	-0.0616455	
1451.5	-0.0616455	
1452	-0.0610352	
1452.5	-0.0613403	
1453	-0.0616455	
1453.5	-0.0610352	
1454	-0.0616455	
1454.5	-0.0616455	
1455	-0.0616455	
1455.5	-0.0613403	
1456	-0.0610352	
1456.5	-0.0613403	
1457	-0.0616455	
1457.5	-0.06073	
1458	-0.06073	
1458.5	-0.0610352	
1459	-0.0616455	
1459.5	-0.0610352	
1460	-0.06073	
1460.5	-0.0640869	
1461	-0.0656128	
1461.5	-0.0662231	
1462	-0.0665283	
1462.5	-0.0665283	
1463	-0.065918	
1463.5	-0.0656128	
1464	-0.0656128	
1464.5	-0.0662231	
1465	-0.0656128	
1465.5	-0.0665283	
1466	-0.0665283	
1466.5	-0.065918	
1467	-0.065918	
1467.5	-0.0662231	
1468	-0.0656128	
1468.5	-0.065918	
1469	-0.0656128	
1469.5	-0.065918	
1470	-0.0665283	
1470.5	-0.065918	
1471	-0.0665283	
1471.5	-0.0662231	
1472	-0.0665283	
1472.5	-0.0662231	
1473	-0.0653076	
1473.5	-0.065918	
1474	-0.0665283	
1474.5	-0.0689697	
1475	-0.0708008	
1475.5	-0.071106	
1476	-0.0704956	
1476.5	-0.0714111	
1477	-0.0708008	
1477.5	-0.0717163	
1478	-0.0708008	
1478.5	-0.0714111	
1479	-0.0704956	
1479.5	-0.0714111	
1480	-0.071106	
1480.5	-0.0708008	
1481	-0.0714111	
1481.5	-0.071106	
1482	-0.071106	
1482.5	-0.071106	
1483	-0.0704956	
1483.5	-0.071106	
1484	-0.0717163	
1484.5	-0.071106	
1485	-0.0708008	
1485.5	-0.0708008	
1486	-0.071106	
1486.5	-0.0704956	
1487	-0.071106	
1487.5	-0.0701904	
1488	-0.071106	
1488.5	-0.0708008	
1489	-0.0708008	
1489.5	-0.0704956	
1490	-0.0732422	
1490.5	-0.0750732	
1491	-0.0762939	
1491.5	-0.0765991	
1492	-0.0762939	
1492.5	-0.0762939	
1493	-0.0750732	
1493.5	-0.0759888	
1494	-0.0762939	
1494.5	-0.0759888	
1495	-0.0753784	
1495.5	-0.0759888	
1496	-0.0762939	
1496.5	-0.0759888	
1497	-0.0759888	
1497.5	-0.0762939	
1498	-0.0759888	
1498.5	-0.0762939	
1499	-0.0762939	
1499.5	-0.0756836	
1500	-0.0762939	
1500.5	-0.0756836	
1501	-0.0756836	
1501.5	-0.0762939	
1502	-0.0750732	
1502.5	-0.0762939	
1503	-0.0765991	
1503.5	-0.0759888	
1504	-0.0765991	
1504.5	-0.0753784	
1505	-0.0762939	
1505.5	-0.0756836	
1506	-0.0759888	
1506.5	-0.0762939	
1507	-0.0753784	
1507.5	-0.0759888	
1508	-0.0759888	
1508.5	-0.0765991	
1509	-0.0753784	
1509.5	-0.0778198	
1510	-0.0796509	
1510.5	-0.0799561	
1511	-0.0808716	
1511.5	-0.0805664	
1512	-0.0802612	
1512.5	-0.0808716	
1513	-0.0805664	
1513.5	-0.0805664	
1514	-0.0805664	
1514.5	-0.0802612	
1515	-0.0808716	
1515.5	-0.0802612	
1516	-0.0799561	
1516.5	-0.0811768	
1517	-0.0805664	
1517.5	-0.0805664	
1518	-0.0802612	
1518.5	-0.0805664	
1519	-0.0808716	
1519.5	-0.0808716	
1520	-0.0802612	
1520.5	-0.0808716	
1521	-0.0802612	
1521.5	-0.0808716	
1522	-0.0802612	
1522.5	-0.0802612	
1523	-0.0802612	
1523.5	-0.0799561	
1524	-0.0805664	
1524.5	-0.0814819	
1525	-0.0808716	
1525.5	-0.0808716	
1526	-0.0805664	
1526.5	-0.0814819	
1527	-0.0805664	
1527.5	-0.0805664	
1528	-0.0808716	
1528.5	-0.0805664	
1529	-0.0808716	
1529.5	-0.0802612	
1530	-0.0811768	
1530.5	-0.0805664	
1531	-0.0799561	
1531.5	-0.0802612	
1532	-0.0799561	
1532.5	-0.0808716	
1533	-0.0802612	
1533.5	-0.0802612	
1534	-0.0808716	
1534.5	-0.0808716	
1535	-0.0799561	
1535.5	-0.0805664	
1536	-0.0805664	
1536.5	-0.0814819	
1537	-0.0842285	
1537.5	-0.0848389	
1538	-0.0857544	
1538.5	-0.0854492	
1539	-0.0854492	
1539.5	-0.0857544	
1540	-0.085144	
1540.5	-0.0863647	
1541	-0.0854492	
1541.5	-0.0854492	
1542	-0.0857544	
1542.5	-0.0854492	
1543	-0.0860596	
1543.5	-0.0857544	
1544	-0.0857544	
1544.5	-0.0854492	
1545	-0.085144	
1545.5	-0.085144	
1546	-0.0854492	
1546.5	-0.085144	
1547	-0.0857544	
1547.5	-0.0854492	
1548	-0.0854492	
1548.5	-0.085144	
1549	-0.0860596	
1549.5	-0.0854492	
1550	-0.0860596	
1550.5	-0.0854492	
1551	-0.0860596	
1551.5	-0.0848389	
1552	-0.0854492	
1552.5	-0.085144	
1553	-0.0854492	
1553.5	-0.0854492	
1554	-0.0857544	
1554.5	-0.0857544	
1555	-0.0860596	
1555.5	-0.0854492	
1556	-0.0857544	
1556.5	-0.0857544	
1557	-0.0854492	
1557.5	-0.0854492	
1558	-0.0848389	
1558.5	-0.0857544	
1559	-0.085144	
1559.5	-0.0848389	
1560	-0.0854492	
1560.5	-0.085144	
1561	-0.0854492	
1561.5	-0.0854492	
1562	-0.0854492	
1562.5	-0.0857544	
1563	-0.085144	
1563.5	-0.0857544	
1564	-0.0854492	
1564.5	-0.085144	
1565	-0.0854492	
1565.5	-0.0854492	
1566	-0.0857544	
1566.5	-0.0857544	
1567	-0.085144	
1567.5	-0.0854492	
1568	-0.0857544	
1568.5	-0.0848389	
1569	-0.0857544	
1569.5	-0.0857544	
1570	-0.085144	
1570.5	-0.0854492	
1571	-0.0854492	
1571.5	-0.085144	
1572	-0.0857544	
1572.5	-0.0860596	
1573	-0.0854492	
1573.5	-0.0854492	
1574	-0.0860596	
1574.5	-0.0854492	
1575	-0.0860596	
1575.5	-0.0857544	
1576	-0.085144	
1576.5	-0.0854492	
1577	-0.0857544	
1577.5	-0.0860596	
1578	-0.085144	
1578.5	-0.0857544	
1579	-0.0857544	
1579.5	-0.0854492	
1580	-0.0857544	
1580.5	-0.0857544	
1581	-0.085144	
1581.5	-0.085144	
1582	-0.0854492	
1582.5	-0.0848389	
1583	-0.0854492	
1583.5	-0.0863647	
1584	-0.0848389	
1584.5	-0.0854492	
1585	-0.0854492	
1585.5	-0.085144	
1586	-0.085144	
1586.5	-0.0854492	
1587	-0.0860596	
1587.5	-0.0860596	
1588	-0.0854492	
1588.5	-0.0854492	
1589	-0.0857544	
1589.5	-0.0857544	
1590	-0.0854492	
1590.5	-0.0854492	
1591	-0.0857544	
1591.5	-0.0854492	
1592	-0.0854492	
1592.5	-0.085144	
1593	-0.0854492	
1593.5	-0.085144	
1594	-0.085144	
1594.5	-0.0854492	
1595	-0.0857544	
1595.5	-0.0854492	
1596	-0.0857544	
1596.5	-0.0857544	
1597	-0.0857544	
1597.5	-0.085144	
1598	-0.085144	
1598.5	-0.0860596	
1599	-0.0854492	
1599.5	-0.0860596	
1600	-0.0854492	
1600.5	-0.085144	
1601	-0.0854492	
1601.5	-0.085144	
1602	-0.0854492	
1602.5	-0.0854492	
1603	-0.0860596	
1603.5	-0.0860596	
1604	-0.0857544	
1604.5	-0.0854492	
1605	-0.085144	
1605.5	-0.0860596	
1606	-0.0860596	
1606.5	-0.085144	
1607	-0.0857544	
1607.5	-0.085144	
1608	-0.0857544	
1608.5	-0.0854492	
1609	-0.0854492	
1609.5	-0.0854492	
1610	-0.0857544	
1610.5	-0.0854492	
1611	-0.0848389	
1611.5	-0.0857544	
1612	-0.0857544	
1612.5	-0.0854492	
1613	-0.0848389	
1613.5	-0.0857544	
1614	-0.0854492	
1614.5	-0.0857544	
1615	-0.0854492	
1615.5	-0.0857544	
1616	-0.085144	
1616.5	-0.0845337	
1617	-0.0857544	
1617.5	-0.085144	
1618	-0.0848389	
1618.5	-0.0854492	
1619	-0.0848389	
1619.5	-0.0860596	
1620	-0.0863647	
1620.5	-0.085144	
1621	-0.0860596	
1621.5	-0.0857544	
1622	-0.0854492	
1622.5	-0.0857544	
1623	-0.085144	
1623.5	-0.085144	
1624	-0.0854492	
1624.5	-0.0854492	
1625	-0.085144	
1625.5	-0.085144	
1626	-0.0860596	
1626.5	-0.0854492	
1627	-0.0854492	
1627.5	-0.0857544	
1628	-0.0848389	
1628.5	-0.085144	
1629	-0.0854492	
1629.5	-0.0857544	
1630	-0.0857544	
1630.5	-0.085144	
1631	-0.0854492	
1631.5	-0.0857544	
1632	-0.0857544	
1632.5	-0.0854492	
1633	-0.0854492	
1633.5	-0.0857544	
1634	-0.0854492	
1634.5	-0.0854492	
1635	-0.0857544	
1635.5	-0.0854492	
1636	-0.0854492	
1636.5	-0.0857544	
1637	-0.0857544	
1637.5	-0.0854492	
1638	-0.0860596	
1638.5	-0.0857544	
1639	-0.0854492	
1639.5	-0.0857544	
1640	-0.0854492	
1640.5	-0.0854492	
1641	-0.0857544	
1641.5	-0.0854492	
1642	-0.0857544	
1642.5	-0.0854492	
1643	-0.0860596	
1643.5	-0.0857544	
1644	-0.0857544	
1644.5	-0.0857544	
1645	-0.0854492	
1645.5	-0.0857544	
1646	-0.0854492	
1646.5	-0.0857544	
1647	-0.085144	
1647.5	-0.0854492	
1648	-0.0860596	
1648.5	-0.0854492	
1649	-0.0860596	
1649.5	-0.0854492	
1650	-0.0854492	
1650.5	-0.0854492	
1651	-0.085144	
1651.5	-0.0860596	
1652	-0.0848389	
1652.5	-0.0854492	
1653	-0.0854492	
1653.5	-0.0854492	
1654	-0.0848389	
1654.5	-0.085144	
1655	-0.085144	
1655.5	-0.0857544	
1656	-0.0857544	
1656.5	-0.0854492	
1657	-0.0842285	
1657.5	-0.0814819	
1658	-0.0811768	
1658.5	-0.0808716	
1659	-0.0802612	
1659.5	-0.0799561	
1660	-0.0811768	
1660.5	-0.0802612	
1661	-0.0805664	
1661.5	-0.0805664	
1662	-0.0808716	
1662.5	-0.0808716	
1663	-0.0811768	
1663.5	-0.0811768	
1664	-0.0805664	
1664.5	-0.0802612	
1665	-0.0799561	
1665.5	-0.0811768	
1666	-0.0802612	
1666.5	-0.0811768	
1667	-0.0799561	
1667.5	-0.0805664	
1668	-0.0808716	
1668.5	-0.0814819	
1669	-0.0811768	
1669.5	-0.0808716	
1670	-0.0808716	
1670.5	-0.0808716	
1671	-0.0811768	
1671.5	-0.0805664	
1672	-0.0805664	
1672.5	-0.0811768	
1673	-0.0802612	
1673.5	-0.0808716	
1674	-0.0802612	
1674.5	-0.0811768	
1675	-0.0808716	
1675.5	-0.0808716	
1676	-0.0805664	
1676.5	-0.0811768	
1677	-0.0811768	
1677.5	-0.0808716	
1678	-0.0808716	
1678.5	-0.0811768	
1679	-0.0802612	
1679.5	-0.0805664	
1680	-0.0805664	
1680.5	-0.0802612	
1681	-0.0805664	
1681.5	-0.0799561	
1682	-0.0805664	
1682.5	-0.0802612	
1683	-0.0811768	
1683.5	-0.0799561	
1684	-0.0808716	
1684.5	-0.0805664	
1685	-0.0808716	
1685.5	-0.0802612	
1686	-0.0805664	
1686.5	-0.0814819	
1687	-0.0805664	
1687.5	-0.0802612	
1688	-0.0808716	
1688.5	-0.0802612	
1689	-0.0805664	
1689.5	-0.0805664	
1690	-0.0808716	
1690.5	-0.0811768	
1691	-0.0805664	
1691.5	-0.0811768	
1692	-0.0808716	
1692.5	-0.0805664	
1693	-0.0808716	
1693.5	-0.0811768	
1694	-0.0805664	
1694.5	-0.0802612	
1695	-0.0802612	
1695.5	-0.0805664	
1696	-0.0808716	
1696.5	-0.0802612	
1697	-0.0808716	
1697.5	-0.0805664	
1698	-0.0805664	
1698.5	-0.0802612	
1699	-0.0811768	
1699.5	-0.0814819	
1700	-0.0802612	
1700.5	-0.0808716	
1701	-0.0811768	
1701.5	-0.0802612	
1702	-0.0808716	
1702.5	-0.0808716	
1703	-0.0805664	
1703.5	-0.0799561	
1704	-0.0808716	
1704.5	-0.0805664	
1705	-0.0811768	
1705.5	-0.0799561	
1706	-0.0808716	
1706.5	-0.0805664	
1707	-0.0805664	
1707.5	-0.0802612	
1708	-0.0805664	
1708.5	-0.0802612	
1709	-0.0811768	
1709.5	-0.0811768	
1710	-0.0805664	
1710.5	-0.0808716	
1711	-0.0808716	
1711.5	-0.0808716	
1712	-0.0802612	
1712.5	-0.0808716	
1713	-0.0808716	
1713.5	-0.0805664	
1714	-0.0808716	
1714.5	-0.0808716	
1715	-0.0802612	
1715.5	-0.0808716	
1716	-0.0805664	
1716.5	-0.0805664	
1717	-0.0802612	
1717.5	-0.0805664	
1718	-0.0808716	
1718.5	-0.0808716	
1719	-0.0836182	
1719.5	-0.085144	
1720	-0.0857544	
1720.5	-0.085144	
1721	-0.0863647	
1721.5	-0.0854492	
1722	-0.085144	
1722.5	-0.085144	
1723	-0.085144	
1723.5	-0.0854492	
1724	-0.0857544	
1724.5	-0.0857544	
1725	-0.0854492	
1725.5	-0.085144	
1726	-0.0857544	
1726.5	-0.0854492	
1727	-0.0854492	
1727.5	-0.0857544	
1728	-0.085144	
1728.5	-0.0854492	
1729	-0.0854492	
1729.5	-0.0857544	
1730	-0.085144	
1730.5	-0.0854492	
1731	-0.0857544	
1731.5	-0.0857544	
1732	-0.0857544	
1732.5	-0.0857544	
1733	-0.0854492	
1733.5	-0.0854492	
1734	-0.0854492	
1734.5	-0.0854492	
1735	-0.0854492	
1735.5	-0.0848389	
1736	-0.0848389	
1736.5	-0.0854492	
1737	-0.0854492	
1737.5	-0.0860596	
1738	-0.0857544	
1738.5	-0.0854492	
1739	-0.0857544	
1739.5	-0.0854492	
1740	-0.085144	
1740.5	-0.0860596	
1741	-0.0854492	
1741.5	-0.0857544	
1742	-0.085144	
1742.5	-0.0854492	
1743	-0.0854492	
1743.5	-0.0857544	
1744	-0.0857544	
1744.5	-0.0860596	
1745	-0.085144	
1745.5	-0.0860596	
1746	-0.0854492	
1746.5	-0.0857544	
1747	-0.0860596	
1747.5	-0.0854492	
1748	-0.0848389	
1748.5	-0.0857544	
1749	-0.0854492	
1749.5	-0.0854492	
1750	-0.085144	
1750.5	-0.085144	
1751	-0.0854492	
1751.5	-0.0854492	
1752	-0.0854492	
1752.5	-0.0857544	
1753	-0.0857544	
1753.5	-0.0857544	
1754	-0.0860596	
1754.5	-0.0845337	
1755	-0.0857544	
1755.5	-0.0854492	
1756	-0.0854492	
1756.5	-0.0857544	
1757	-0.085144	
1757.5	-0.0860596	
1758	-0.0854492	
1758.5	-0.0854492	
1759	-0.0854492	
1759.5	-0.0848389	
1760	-0.0854492	
1760.5	-0.0854492	
1761	-0.0854492	
1761.5	-0.0836182	
1762	-0.0811768	
1762.5	-0.0808716	
1763	-0.0802612	
1763.5	-0.0805664	
1764	-0.0799561	
1764.5	-0.0808716	
1765	-0.0802612	
1765.5	-0.0808716	
1766	-0.0805664	
1766.5	-0.0808716	
1767	-0.0808716	
1767.5	-0.0805664	
1768	-0.0793457	
1768.5	-0.0772095	
1769	-0.0759888	
1769.5	-0.0762939	
1770	-0.0756836	
1770.5	-0.0750732	
1771	-0.0765991	
1771.5	-0.0756836	
1772	-0.0759888	
1772.5	-0.0747681	
1773	-0.0714111	
1773.5	-0.071106	
1774	-0.071106	
1774.5	-0.0708008	
1775	-0.0717163	
1775.5	-0.0701904	
1776	-0.0708008	
1776.5	-0.0692749	
1777	-0.0671387	
1777.5	-0.0668335	
1778	-0.065918	
1778.5	-0.065918	
1779	-0.0662231	
1779.5	-0.0643921	
1780	-0.0622559	
1780.5	-0.0610352	
1781	-0.0616455	
1781.5	-0.0604248	
1782	-0.0613403	
1782.5	-0.0598145	
1783	-0.0579834	
1783.5	-0.0567627	
1784	-0.0558472	
1784.5	-0.0564575	
1785	-0.0552368	
1785.5	-0.0531006	
1786	-0.0521851	
1786.5	-0.0515747	
1787	-0.0515747	
1787.5	-0.0500488	
1788	-0.0479126	
1788.5	-0.0469971	
1789	-0.0463867	
1789.5	-0.0457764	
1790	-0.0424194	
1790.5	-0.0418091	
1791	-0.0415039	
1791.5	-0.0402832	
1792	-0.038147	
1792.5	-0.0369263	
1793	-0.0366211	
1793.5	-0.0360107	
1794	-0.0332642	
1794.5	-0.0320435	
1795	-0.0317383	
1795.5	-0.0308228	
1796	-0.027771	
1796.5	-0.0274658	
1797	-0.0262451	
1797.5	-0.0231934	
1798	-0.0216675	
1798.5	-0.0222778	
1799	-0.0213623	
1799.5	-0.0189209	
1800	-0.0164795	
1800.5	-0.0158691	
1801	-0.0131226	
1801.5	-0.012207	
1802	-0.0106812	
1802.5	-0.00854492	
1803	-0.00732422	
1803.5	-0.00701904	
1804	-0.00335693	
1804.5	-0.00305176	
1805	-0.00152588	
1805.5	0.0012207	
1806	0.00213623	
1806.5	0.00305176	
1807	0.00610352	
1807.5	0.00732422	
1808	0.00793457	
1808.5	0.0109863	
1809	0.012207	
1809.5	0.0128174	
1810	0.0152588	
1810.5	0.0170898	
1811	0.0183105	
1811.5	0.0213623	
1812	0.0219727	
1812.5	0.0228882	
1813	0.0259399	
1813.5	0.0271606	
1814	0.0305176	
1814.5	0.0314331	
1815	0.0326538	
1815.5	0.0357056	
1816	0.0366211	
1816.5	0.0375366	
1817	0.0405884	
1817.5	0.0415039	
1818	0.0448608	
1818.5	0.0463867	
1819	0.0473022	
1819.5	0.0506592	
1820	0.0518799	
1820.5	0.0549316	
1821	0.0561523	
1821.5	0.0570679	
1822	0.0601196	
1822.5	0.0613403	
1823	0.0646973	
1823.5	0.0662231	
1824	0.0671387	
1824.5	0.0701904	
1825	0.071106	
1825.5	0.0750732	
1826	0.0765991	
1826.5	0.0769043	
1827	0.0796509	
1827.5	0.0802612	
1828	0.0836182	
1828.5	0.085144	
1829	0.0854492	
1829.5	0.088501	
1830	0.0897217	
1830.5	0.0939941	
1831	0.0949097	
1831.5	0.0949097	
1832	0.0985718	
1832.5	0.0997925	
1833	0.102844	
1833.5	0.10437	
1834	0.105286	
1834.5	0.108032	
1835	0.109863	
1835.5	0.11322	
1836	0.115051	
1836.5	0.115051	
1837	0.118103	
1837.5	0.118713	
1838	0.122681	
1838.5	0.123291	
1839	0.124817	
1839.5	0.127869	
1840	0.129089	
1840.5	0.132446	
1841	0.134277	
1841.5	0.133972	
1842	0.137329	
1842.5	0.13916	
1843	0.142517	
1843.5	0.143738	
1844	0.144043	
1844.5	0.147095	
1845	0.148926	
1845.5	0.151978	
1846	0.154114	
1846.5	0.154114	
1847	0.15686	
1847.5	0.158691	
1848	0.158691	
1848.5	0.161743	
1849	0.163269	
1849.5	0.164185	
1850	0.167542	
1850.5	0.168762	
1851	0.172119	
1851.5	0.173035	
1852	0.173645	
1852.5	0.176086	
1853	0.177307	
1853.5	0.179138	
1854	0.181274	
1854.5	0.1828	
1855	0.183716	
1855.5	0.186462	
1856	0.188293	
1856.5	0.188904	
1857	0.19104	
1857.5	0.193176	
1858	0.193176	
1858.5	0.196228	
1859	0.197754	
1859.5	0.198975	
1860	0.201416	
1860.5	0.202942	
1861	0.202942	
1861.5	0.204163	
1862	0.205688	
1862.5	0.20813	
1863	0.208435	
1863.5	0.211792	
1864	0.212402	
1864.5	0.212708	
1865	0.216064	
1865.5	0.21698	
1866	0.217896	
1866.5	0.218201	
1867	0.220337	
1867.5	0.222778	
1868	0.222778	
1868.5	0.222778	
1869	0.225525	
1869.5	0.227051	
1870	0.228271	
1870.5	0.227966	
1871	0.230408	
1871.5	0.232544	
1872	0.232544	
1872.5	0.232544	
1873	0.234375	
1873.5	0.237122	
1874	0.237732	
1874.5	0.237732	
1875	0.239563	
1875.5	0.241394	
1876	0.24231	
1876.5	0.241699	
1877	0.244446	
1877.5	0.246887	
1878	0.246277	
1878.5	0.247498	
1879	0.248108	
1879.5	0.249939	
1880	0.251465	
1880.5	0.252686	
1881	0.25238	
1881.5	0.25238	
1882	0.254211	
1882.5	0.256348	
1883	0.256653	
1883.5	0.256958	
1884	0.256958	
1884.5	0.257874	
1885	0.259399	
1885.5	0.261536	
1886	0.263367	
1886.5	0.261536	
1887	0.262146	
1887.5	0.262146	
1888	0.264282	
1888.5	0.266418	
1889	0.266418	
1889.5	0.266724	
1890	0.267029	
1890.5	0.267334	
1891	0.267334	
1891.5	0.269165	
1892	0.271301	
1892.5	0.272217	
1893	0.272217	
1893.5	0.271606	
1894	0.271606	
1894.5	0.271912	
1895	0.271912	
1895.5	0.274048	
1896	0.275269	
1896.5	0.276489	
1897	0.2771	
1897.5	0.276489	
1898	0.27771	
1898.5	0.2771	
1899	0.276489	
1899.5	0.2771	
1900	0.276184	
1900.5	0.278625	
1901	0.280762	
1901.5	0.282593	
1902	0.281677	
1902.5	0.281982	
1903	0.281372	
1903.5	0.281982	
1904	0.281677	
1904.5	0.281372	
1905	0.281677	
1905.5	0.281067	
1906	0.281677	
1906.5	0.281677	
1907	0.282593	
1907.5	0.285645	
1908	0.286865	
1908.5	0.286865	
1909	0.286865	
1909.5	0.286865	
1910	0.28656	
1910.5	0.28717	
1911	0.28656	
1911.5	0.286865	
1912	0.286865	
1912.5	0.286865	
1913	0.286255	
1913.5	0.28656	
1914	0.28656	
1914.5	0.28656	
1915	0.287476	
1915.5	0.28717	
1916	0.287781	
1916.5	0.28717	
1917	0.28656	
1917.5	0.288086	
1918	0.290222	
1918.5	0.291443	
1919	0.292053	
1919.5	0.292053	
1920	0.291138	
1920.5	0.291748	
1921	0.291443	
1921.5	0.292053	
1922	0.291748	
1922.5	0.291443	
1923	0.291748	
1923.5	0.291443	
1924	0.291443	
1924.5	0.292053	
1925	0.291748	
1925.5	0.291443	
1926	0.291443	
1926.5	0.292053	
1927	0.291443	
1927.5	0.291443	
1928	0.292053	
1928.5	0.291443	
1929	0.291748	
1929.5	0.291748	
1930	0.291138	
1930.5	0.291748	
1931	0.291748	
1931.5	0.291748	
1932	0.292053	
1932.5	0.291443	
1933	0.292053	
1933.5	0.292053	
1934	0.291748	
1934.5	0.291748	
1935	0.291748	
1935.5	0.291748	
1936	0.292969	
1936.5	0.291748	
1937	0.291748	
1937.5	0.292358	
1938	0.291443	
1938.5	0.291748	
1939	0.291443	
1939.5	0.291748	
1940	0.291748	
1940.5	0.290833	
1941	0.291748	
1941.5	0.291443	
1942	0.291443	
1942.5	0.291748	
1943	0.292358	
1943.5	0.292053	
1944	0.291748	
1944.5	0.291443	
1945	0.292053	
1945.5	0.292358	
1946	0.292358	
1946.5	0.291748	
1947	0.291443	
1947.5	0.292053	
1948	0.292053	
1948.5	0.291138	
1949	0.288391	
1949.5	0.28656	
1950	0.28717	
1950.5	0.28656	
1951	0.28717	
1951.5	0.286865	
1952	0.286865	
1952.5	0.28656	
1953	0.28656	
1953.5	0.28717	
1954	0.28656	
1954.5	0.28656	
1955	0.28656	
1955.5	0.286865	
1956	0.286865	
1956.5	0.286865	
1957	0.28656	
1957.5	0.28595	
1958	0.28656	
1958.5	0.28656	
1959	0.286865	
1959.5	0.28717	
1960	0.286255	
1960.5	0.28656	
1961	0.28656	
1961.5	0.28656	
1962	0.286865	
1962.5	0.28717	
1963	0.284119	
1963.5	0.281372	
1964	0.281982	
1964.5	0.281982	
1965	0.281372	
1965.5	0.281982	
1966	0.281677	
1966.5	0.281677	
1967	0.281677	
1967.5	0.282288	
1968	0.281677	
1968.5	0.281982	
1969	0.281677	
1969.5	0.281982	
1970	0.282288	
1970.5	0.281372	
1971	0.281982	
1971.5	0.281372	
1972	0.279236	
1972.5	0.277405	
1973	0.2771	
1973.5	0.2771	
1974	0.276794	
1974.5	0.276794	
1975	0.2771	
1975.5	0.276794	
1976	0.2771	
1976.5	0.2771	
1977	0.276794	
1977.5	0.277405	
1978	0.276489	
1978.5	0.277405	
1979	0.274048	
1979.5	0.272522	
1980	0.272522	
1980.5	0.272522	
1981	0.271606	
1981.5	0.272217	
1982	0.272217	
1982.5	0.271912	
1983	0.272522	
1983.5	0.272522	
1984	0.271606	
1984.5	0.26947	
1985	0.267944	
1985.5	0.266724	
1986	0.267334	
1986.5	0.267029	
1987	0.267639	
1987.5	0.267639	
1988	0.267334	
1988.5	0.267029	
1989	0.264587	
1989.5	0.262756	
1990	0.262451	
1990.5	0.261841	
1991	0.262146	
1991.5	0.262451	
1992	0.262451	
1992.5	0.263062	
1993	0.262756	
1993.5	0.259705	
1994	0.257263	
1994.5	0.257568	
1995	0.257263	
1995.5	0.256958	
1996	0.257263	
1996.5	0.257263	
1997	0.255737	
1997.5	0.252991	
1998	0.252991	
1998.5	0.25177	
1999	0.251465	
1999.5	0.252686	
2000	0.252075	
2000.5	0.252075	
2001	0.25116	
2001.5	0.247803	
2002	0.247803	
2002.5	0.247498	
2003	0.247498	
2003.5	0.247498	
2004	0.245361	
2004.5	0.243225	
2005	0.242615	
2005.5	0.242004	
2006	0.24231	
2006.5	0.242615	
2007	0.24231	
2007.5	0.240479	
2008	0.238647	
2008.5	0.237427	
2009	0.237732	
2009.5	0.237427	
2010	0.237427	
2010.5	0.235901	
2011	0.233459	
2011.5	0.232849	
2012	0.233154	
2012.5	0.233154	
2013	0.232849	
2013.5	0.231018	
2014	0.228271	
2014.5	0.228271	
2015	0.227966	
2015.5	0.227356	
2016	0.227966	
2016.5	0.226746	
2017	0.223083	
2017.5	0.223083	
2018	0.222778	
2018.5	0.222778	
2019	0.223083	
2019.5	0.221558	
2020	0.219421	
2020.5	0.217896	
2021	0.218201	
2021.5	0.217896	
2022	0.218506	
2022.5	0.216675	
2023	0.214233	
2023.5	0.213013	
2024	0.213623	
2024.5	0.213318	
2025	0.213623	
2025.5	0.212097	
2026	0.20874	
2026.5	0.209045	
2027	0.207825	
2027.5	0.20813	
2028	0.207214	
2028.5	0.203857	
2029	0.202942	
2029.5	0.203552	
2030	0.202942	
2030.5	0.202637	
2031	0.201721	
2031.5	0.199585	
2032	0.198975	
2032.5	0.198059	
2033	0.198364	
2033.5	0.197144	
2034	0.194702	
2034.5	0.193787	
2035	0.193176	
2035.5	0.193787	
2036	0.192871	
2036.5	0.189819	
2037	0.188904	
2037.5	0.188293	
2038	0.188293	
2038.5	0.188904	
2039	0.187378	
2039.5	0.185242	
2040	0.184021	
2040.5	0.183716	
2041	0.183411	
2041.5	0.183105	
2042	0.180054	
2042.5	0.178833	
2043	0.177917	
2043.5	0.178528	
2044	0.178833	
2044.5	0.176697	
2045	0.176086	
2045.5	0.174255	
2046	0.17395	
2046.5	0.17395	
2047	0.172424	
2047.5	0.169983	
2048	0.169373	
2048.5	0.168762	
2049	0.168762	
2049.5	0.168457	
2050	0.168152	
2050.5	0.1651	
2051	0.16449	
2051.5	0.16449	
2052	0.164185	
2052.5	0.164185	
2053	0.163269	
2053.5	0.160217	
2054	0.159912	
2054.5	0.159607	
2055	0.158997	
2055.5	0.158691	
2056	0.155029	
2056.5	0.154724	
2057	0.153809	
2057.5	0.154419	
2058	0.154419	
2058.5	0.154419	
2059	0.151367	
2059.5	0.150146	
2060	0.149841	
2060.5	0.149536	
2061	0.148926	
2061.5	0.148621	
2062	0.145874	
2062.5	0.145264	
2063	0.144958	
2063.5	0.144348	
2064	0.144348	
2064.5	0.144348	
2065	0.141602	
2065.5	0.139465	
2066	0.139771	
2066.5	0.139465	
2067	0.13916	
2067.5	0.13855	
2068	0.135193	
2068.5	0.134583	
2069	0.134888	
2069.5	0.134583	
2070	0.134277	
2070.5	0.134277	
2071	0.131531	
2071.5	0.130005	
2072	0.1297	
2072.5	0.129395	
2073	0.129089	
2073.5	0.1297	
2074	0.130005	
2074.5	0.126343	
2075	0.125122	
2075.5	0.124512	
2076	0.124817	
2076.5	0.125122	
2077	0.123901	
2077.5	0.12146	
2078	0.119934	
2078.5	0.120239	
2079	0.119934	
2079.5	0.119934	
2080	0.120239	
2080.5	0.119019	
2081	0.116272	
2081.5	0.115051	
2082	0.115356	
2082.5	0.114746	
2083	0.115051	
2083.5	0.114441	
2084	0.114136	
2084.5	0.112305	
2085	0.110779	
2085.5	0.110779	
2086	0.109863	
2086.5	0.110779	
2087	0.110474	
2087.5	0.109863	
2088	0.107422	
2088.5	0.105896	
2089	0.105591	
2089.5	0.10498	
2090	0.105286	
2090.5	0.105896	
2091	0.104675	
2091.5	0.101624	
2092	0.100098	
2092.5	0.100098	
2093	0.101013	
2093.5	0.100098	
2094	0.101013	
2094.5	0.100708	
2095	0.100098	
2095.5	0.0973511	
2096	0.09552	
2096.5	0.0949097	
2097	0.09552	
2097.5	0.09552	
2098	0.0949097	
2098.5	0.0952148	
2099	0.0952148	
2099.5	0.0930786	
2100	0.0912476	
2100.5	0.0906372	
2101	0.0909424	
2101.5	0.090332	
2102	0.090332	
2102.5	0.0900269	
2103	0.0900269	
2103.5	0.088501	
2104	0.0860596	
2104.5	0.0854492	
2105	0.0857544	
2105.5	0.0854492	
2106	0.0848389	
2106.5	0.085144	
2107	0.0854492	
2107.5	0.0830078	
2108	0.0808716	
2108.5	0.0805664	
2109	0.0805664	
2109.5	0.0805664	
2110	0.0811768	
2110.5	0.0802612	
2111	0.0805664	
2111.5	0.0805664	
2112	0.0787354	
2112.5	0.0769043	
2113	0.0762939	
2113.5	0.0762939	
2114	0.0765991	
2114.5	0.0765991	
2115	0.0765991	
2115.5	0.0762939	
2116	0.0759888	
2116.5	0.0741577	
2117	0.0720215	
2117.5	0.0720215	
2118	0.0708008	
2118.5	0.071106	
2119	0.071106	
2119.5	0.0708008	
2120	0.0708008	
2120.5	0.071106	
2121	0.0689697	
2121.5	0.0671387	
2122	0.0674438	
2122.5	0.0665283	
2123	0.065918	
2123.5	0.0662231	
2124	0.0662231	
2124.5	0.0665283	
2125	0.0665283	
2125.5	0.0643921	
2126	0.0628662	
2126.5	0.0610352	
2127	0.0619507	
2127.5	0.0610352	
2128	0.0619507	
2128.5	0.0613403	
2129	0.0616455	
2129.5	0.0613403	
2130	0.0616455	
2130.5	0.0598145	
2131	0.057373	
2131.5	0.0570679	
2132	0.0564575	
2132.5	0.0564575	
2133	0.0564575	
2133.5	0.0570679	
2134	0.0567627	
2134.5	0.0564575	
2135	0.0570679	
2135.5	0.0552368	
2136	0.0518799	
2136.5	0.0521851	
2137	0.0518799	
2137.5	0.0518799	
2138	0.0518799	
2138.5	0.0521851	
2139	0.0512695	
2139.5	0.0515747	
2140	0.0512695	
2140.5	0.0524902	
2141	0.0497437	
2141.5	0.0479126	
2142	0.0463867	
2142.5	0.0473022	
2143	0.0473022	
2143.5	0.0469971	
2144	0.0469971	
2144.5	0.0466919	
2145	0.0469971	
2145.5	0.0463867	
2146	0.0466919	
2146.5	0.0457764	
2147	0.0427246	
2147.5	0.0411987	
2148	0.0421143	
2148.5	0.0421143	
2149	0.0418091	
2149.5	0.0421143	
2150	0.0418091	
2150.5	0.0424194	
2151	0.0421143	
2151.5	0.0421143	
2152	0.0405884	
2152.5	0.038147	
2153	0.0372314	
2153.5	0.0375366	
2154	0.0366211	
2154.5	0.0369263	
2155	0.0378418	
2155.5	0.0369263	
2156	0.0372314	
2156.5	0.0369263	
2157	0.0378418	
2157.5	0.0360107	
2158	0.032959	
2158.5	0.0320435	
2159	0.0317383	
2159.5	0.0320435	
2160	0.0317383	
2160.5	0.0320435	
2161	0.0323486	
2161.5	0.0317383	
2162	0.0320435	
2162.5	0.0317383	
2163	0.0311279	
2163.5	0.0283813	
2164	0.0265503	
2164.5	0.0268555	
2165	0.0268555	
2165.5	0.027771	
2166	0.0271606	
2166.5	0.0274658	
2167	0.027771	
2167.5	0.0274658	
2168	0.0274658	
2168.5	0.0265503	
2169	0.0265503	
2169.5	0.0234985	
2170	0.0219727	
2170.5	0.0216675	
2171	0.0219727	
2171.5	0.0222778	
2172	0.0216675	
2172.5	0.0216675	
2173	0.022583	
2173.5	0.0222778	
2174	0.0219727	
2174.5	0.0216675	
2175	0.0216675	
2175.5	0.0183105	
2176	0.017395	
2176.5	0.0170898	
2177	0.0167847	
2177.5	0.0177002	
2178	0.0170898	
2178.5	0.017395	
2179	0.017395	
2179.5	0.0167847	
2180	0.017395	
2180.5	0.017395	
2181	0.0164795	
2181.5	0.0140381	
2182	0.0125122	
2182.5	0.0125122	
2183	0.012207	
2183.5	0.0119019	
2184	0.0128174	
2184.5	0.0128174	
2185	0.012207	
2185.5	0.0119019	
2186	0.0125122	
2186.5	0.0128174	
2187	0.0125122	
2187.5	0.00946045	
2188	0.00793457	
2188.5	0.00732422	
2189	0.00823975	
2189.5	0.00732422	
2190	0.00732422	
2190.5	0.00793457	
2191	0.00793457	
2191.5	0.00701904	
2192	0.00701904	
2192.5	0.00732422	
2193	0.00793457	
2193.5	0.00732422	
2194	0.00488281	
2194.5	0.00274658	
2195	0.00305176	
2195.5	0.00183105	
2196	0.00274658	
2196.5	0.00244141	
2197	0.00274658	
2197.5	0.00305176	
2198	0.00305176	
2198.5	0.00244141	
2199	0.00244141	
2199.5	0.00183105	
2200	-0.000305176	
2200.5	-0.00183105	
2201	-0.00213623	
2201.5	-0.00244141	
2202	-0.00213623	
2202.5	-0.00213623	
2203	-0.00213623	
2203.5	-0.00213623	
2204	-0.00213623	
2204.5	-0.00213623	
2205	-0.00183105	
2205.5	-0.00213623	
2206	-0.00244141	
2206.5	-0.00488281	
2207	-0.00640869	
2207.5	-0.00640869	
2208	-0.00640869	
2208.5	-0.00762939	
2209	-0.00732422	
2209.5	-0.00732422	
2210	-0.00701904	
2210.5	-0.00762939	
2211	-0.00762939	
2211.5	-0.00671387	
2212	-0.00732422	
2212.5	-0.0106812	
2213	-0.012207	
2213.5	-0.0119019	
2214	-0.0125122	
2214.5	-0.012207	
2215	-0.012207	
2215.5	-0.0119019	
2216	-0.0119019	
2216.5	-0.0125122	
2217	-0.012207	
2217.5	-0.012207	
2218	-0.012207	
2218.5	-0.0143433	
2219	-0.0164795	
2219.5	-0.0167847	
2220	-0.0170898	
2220.5	-0.017395	
2221	-0.0167847	
2221.5	-0.0177002	
2222	-0.0167847	
2222.5	-0.0170898	
2223	-0.0167847	
2223.5	-0.0167847	
2224	-0.0167847	
2224.5	-0.0170898	
2225	-0.0195313	
2225.5	-0.0213623	
2226	-0.0216675	
2226.5	-0.0216675	
2227	-0.0216675	
2227.5	-0.022583	
2228	-0.0216675	
2228.5	-0.0222778	
2229	-0.0216675	
2229.5	-0.0213623	
2230	-0.0222778	
2230.5	-0.0219727	
2231	-0.0253296	
2231.5	-0.0262451	
2232	-0.0271606	
2232.5	-0.0268555	
2233	-0.0265503	
2233.5	-0.0265503	
2234	-0.0265503	
2234.5	-0.0274658	
2235	-0.0271606	
2235.5	-0.0274658	
2236	-0.0265503	
2236.5	-0.0268555	
2237	-0.0289917	
2237.5	-0.0311279	
2238	-0.0314331	
2238.5	-0.0314331	
2239	-0.0317383	
2239.5	-0.0320435	
2240	-0.0320435	
2240.5	-0.0320435	
2241	-0.0314331	
2241.5	-0.0317383	
2242	-0.0314331	
2242.5	-0.0317383	
2243	-0.0341797	
2243.5	-0.0363159	
2244	-0.0363159	
2244.5	-0.0366211	
2245	-0.0369263	
2245.5	-0.0366211	
2246	-0.0366211	
2246.5	-0.0360107	
2247	-0.0372314	
2247.5	-0.0360107	
2248	-0.0366211	
2248.5	-0.0366211	
2249	-0.038147	
2249.5	-0.0408936	
2250	-0.0411987	
2250.5	-0.0411987	
2251	-0.0415039	
2251.5	-0.0415039	
2252	-0.0411987	
2252.5	-0.0411987	
2253	-0.0415039	
2253.5	-0.0408936	
2254	-0.0415039	
2254.5	-0.0415039	
2255	-0.043335	
2255.5	-0.0454712	
2256	-0.0457764	
2256.5	-0.0460815	
2257	-0.0463867	
2257.5	-0.0460815	
2258	-0.0466919	
2258.5	-0.0466919	
2259	-0.0463867	
2259.5	-0.0463867	
2260	-0.0460815	
2260.5	-0.0463867	
2261	-0.0479126	
2261.5	-0.0506592	
2262	-0.0509644	
2262.5	-0.0515747	
2263	-0.0515747	
2263.5	-0.0512695	
2264	-0.0515747	
2264.5	-0.0509644	
2265	-0.0512695	
2265.5	-0.0512695	
2266	-0.0512695	
2266.5	-0.0515747	
2267	-0.0512695	
2267.5	-0.0531006	
2268	-0.0552368	
2268.5	-0.0558472	
2269	-0.0561523	
2269.5	-0.0567627	
2270	-0.0567627	
2270.5	-0.0564575	
2271	-0.0558472	
2271.5	-0.0558472	
2272	-0.0561523	
2272.5	-0.0561523	
2273	-0.0561523	
2273.5	-0.0579834	
2274	-0.0601196	
2274.5	-0.0610352	
2275	-0.0613403	
2275.5	-0.0613403	
2276	-0.0613403	
2276.5	-0.0616455	
2277	-0.0610352	
2277.5	-0.0604248	
2278	-0.0610352	
2278.5	-0.06073	
2279	-0.0610352	
2279.5	-0.06073	
2280	-0.062561	
2280.5	-0.0653076	
2281	-0.0662231	
2281.5	-0.0665283	
2282	-0.0662231	
2282.5	-0.0665283	
2283	-0.065918	
2283.5	-0.0662231	
2284	-0.0662231	
2284.5	-0.0662231	
2285	-0.0665283	
2285.5	-0.0662231	
2286	-0.0662231	
2286.5	-0.0668335	
2287	-0.0692749	
2287.5	-0.0708008	
2288	-0.071106	
2288.5	-0.0714111	
2289	-0.071106	
2289.5	-0.071106	
2290	-0.0714111	
2290.5	-0.071106	
2291	-0.0714111	
2291.5	-0.0717163	
2292	-0.0714111	
2292.5	-0.0714111	
2293	-0.0723267	
2293.5	-0.0747681	
2294	-0.0759888	
2294.5	-0.0753784	
2295	-0.0756836	
2295.5	-0.0759888	
2296	-0.0756836	
2296.5	-0.0753784	
2297	-0.0753784	
2297.5	-0.0759888	
2298	-0.0762939	
2298.5	-0.0762939	
2299	-0.0759888	
2299.5	-0.0762939	
2300	-0.0796509	
2300.5	-0.0808716	
2301	-0.0805664	
2301.5	-0.0805664	
2302	-0.0808716	
2302.5	-0.0808716	
2303	-0.0802612	
2303.5	-0.0805664	
2304	-0.0805664	
2304.5	-0.0805664	
2305	-0.0802612	
2305.5	-0.0799561	
2306	-0.0814819	
2306.5	-0.0814819	
2307	-0.0839233	
2307.5	-0.0854492	
2308	-0.0857544	
2308.5	-0.0857544	
2309	-0.0857544	
2309.5	-0.0854492	
2310	-0.0854492	
2310.5	-0.0863647	
2311	-0.0854492	
2311.5	-0.0857544	
2312	-0.0854492	
2312.5	-0.0854492	
2313	-0.0857544	
2313.5	-0.085144	
2314	-0.0860596	
2314.5	-0.0891113	
2315	-0.0906372	
2315.5	-0.0909424	
2316	-0.090332	
2316.5	-0.0900269	
2317	-0.090332	
2317.5	-0.090332	
2318	-0.090332	
2318.5	-0.090332	
2319	-0.0909424	
2319.5	-0.0906372	
2320	-0.090332	
2320.5	-0.0906372	
2321	-0.0897217	
2321.5	-0.0912476	
2322	-0.090332	
2322.5	-0.0933838	
2323	-0.0949097	
2323.5	-0.0952148	
2324	-0.09552	
2324.5	-0.09552	
2325	-0.0949097	
2325.5	-0.0958252	
2326	-0.09552	
2326.5	-0.0949097	
2327	-0.0961304	
2327.5	-0.0958252	
2328	-0.0958252	
2328.5	-0.0958252	
2329	-0.0952148	
2329.5	-0.0958252	
2330	-0.09552	
2330.5	-0.0961304	
2331	-0.0982666	
2331.5	-0.0994873	
2332	-0.100098	
2332.5	-0.100098	
2333	-0.100403	
2333.5	-0.100708	
2334	-0.100403	
2334.5	-0.100098	
2335	-0.101013	
2335.5	-0.0997925	
2336	-0.100098	
2336.5	-0.100098	
2337	-0.100403	
2337.5	-0.0997925	
2338	-0.100708	
2338.5	-0.100098	
2339	-0.100403	
2339.5	-0.100403	
2340	-0.100098	
2340.5	-0.100403	
2341	-0.103149	
2341.5	-0.10498	
2342	-0.105286	
2342.5	-0.105286	
2343	-0.105591	
2343.5	-0.10498	
2344	-0.10498	
2344.5	-0.105286	
2345	-0.10437	
2345.5	-0.105286	
2346	-0.105591	
2346.5	-0.10498	
2347	-0.105896	
2347.5	-0.10498	
2348	-0.10498	
2348.5	-0.104675	
2349	-0.10498	
2349.5	-0.105591	
2350	-0.105591	
2350.5	-0.10498	
2351	-0.10498	
2351.5	-0.10498	
2352	-0.10498	
2352.5	-0.104675	
2353	-0.105286	
2353.5	-0.107117	
2354	-0.109253	
2354.5	-0.109558	
2355	-0.109558	
2355.5	-0.110168	
2356	-0.109863	
2356.5	-0.110168	
2357	-0.109863	
2357.5	-0.110474	
2358	-0.109558	
2358.5	-0.109558	
2359	-0.109863	
2359.5	-0.110474	
2360	-0.109863	
2360.5	-0.109863	
2361	-0.109863	
2361.5	-0.110168	
2362	-0.110474	
2362.5	-0.110168	
2363	-0.110168	
2363.5	-0.110779	
2364	-0.110168	
2364.5	-0.109558	
2365	-0.110168	
2365.5	-0.109863	
2366	-0.109558	
2366.5	-0.110168	
2367	-0.110168	
2367.5	-0.109863	
2368	-0.110168	
2368.5	-0.110168	
2369	-0.110779	
2369.5	-0.110168	
2370	-0.110474	
2370.5	-0.112305	
2371	-0.114441	
2371.5	-0.115051	
2372	-0.114746	
2372.5	-0.114441	
2373	-0.114746	
2373.5	-0.115356	
2374	-0.114746	
2374.5	-0.115051	
2375	-0.115356	
2375.5	-0.115051	
2376	-0.115356	
2376.5	-0.115051	
2377	-0.115356	
2377.5	-0.114441	
2378	-0.114746	
2378.5	-0.115356	
2379	-0.115051	
2379.5	-0.115356	
2380	-0.114746	
2380.5	-0.115356	
2381	-0.114746	
2381.5	-0.115051	
2382	-0.115662	
2382.5	-0.114746	
2383	-0.115356	
2383.5	-0.115356	
2384	-0.114746	
2384.5	-0.115356	
2385	-0.115051	
2385.5	-0.115356	
2386	-0.115051	
2386.5	-0.115051	
2387	-0.115051	
2387.5	-0.115356	
2388	-0.114441	
2388.5	-0.114746	
2389	-0.114746	
2389.5	-0.115051	
2390	-0.114746	
2390.5	-0.115051	
2391	-0.115051	
2391.5	-0.115051	
2392	-0.115051	
2392.5	-0.114441	
2393	-0.115356	
2393.5	-0.115051	
2394	-0.115051	
2394.5	-0.115662	
2395	-0.115051	
2395.5	-0.115356	
2396	-0.114746	
2396.5	-0.115051	
2397	-0.115051	
2397.5	-0.115356	
2398	-0.115356	
2398.5	-0.114746	
2399	-0.114441	
2399.5	-0.114746	
2400	-0.114746	
2400.5	-0.115051	
2401	-0.115356	
2401.5	-0.115051	
2402	-0.114746	
2402.5	-0.116577	
2403	-0.119019	
2403.5	-0.119934	
2404	-0.119629	
2404.5	-0.119934	
2405	-0.119629	
2405.5	-0.120239	
2406	-0.120544	
2406.5	-0.119934	
2407	-0.119934	
2407.5	-0.119934	
2408	-0.12085	
2408.5	-0.119629	
2409	-0.119629	
2409.5	-0.120239	
2410	-0.119934	
2410.5	-0.119934	
2411	-0.119934	
2411.5	-0.119934	
2412	-0.120239	
2412.5	-0.120239	
2413	-0.119629	
2413.5	-0.119934	
2414	-0.119934	
2414.5	-0.120239	
2415	-0.119934	
2415.5	-0.119934	
2416	-0.119629	
2416.5	-0.119629	
2417	-0.119934	
2417.5	-0.119934	
2418	-0.119934	
2418.5	-0.119629	
2419	-0.119629	
2419.5	-0.119934	
2420	-0.119629	
2420.5	-0.120544	
2421	-0.120239	
2421.5	-0.119324	
2422	-0.119934	
2422.5	-0.119324	
2423	-0.119934	
2423.5	-0.119934	
2424	-0.119934	
2424.5	-0.119629	
2425	-0.119629	
2425.5	-0.119934	
2426	-0.119934	
2426.5	-0.120544	
2427	-0.119629	
2427.5	-0.119324	
2428	-0.119629	
2428.5	-0.119934	
2429	-0.119629	
2429.5	-0.120239	
2430	-0.120239	
2430.5	-0.119934	
2431	-0.119934	
2431.5	-0.119629	
2432	-0.120239	
2432.5	-0.119934	
2433	-0.119934	
2433.5	-0.119629	
2434	-0.120239	
2434.5	-0.120544	
2435	-0.120239	
2435.5	-0.119934	
2436	-0.120544	
2436.5	-0.119934	
2437	-0.119934	
2437.5	-0.120239	
2438	-0.119934	
2438.5	-0.120239	
2439	-0.119324	
2439.5	-0.119324	
2440	-0.119934	
2440.5	-0.119629	
2441	-0.119934	
2441.5	-0.119629	
2442	-0.119629	
2442.5	-0.120239	
2443	-0.119934	
2443.5	-0.120239	
2444	-0.119934	
2444.5	-0.119934	
2445	-0.120239	
2445.5	-0.119934	
2446	-0.120239	
2446.5	-0.119629	
2447	-0.119324	
2447.5	-0.119629	
2448	-0.119934	
2448.5	-0.120544	
2449	-0.120544	
2449.5	-0.119934	
2450	-0.119934	
2450.5	-0.119629	
2451	-0.119629	
2451.5	-0.119934	
2452	-0.119934	
2452.5	-0.120239	
2453	-0.120239	
2453.5	-0.120239	
2454	-0.120239	
2454.5	-0.119629	
2455	-0.119934	
2455.5	-0.119934	
2456	-0.119934	
2456.5	-0.119629	
2457	-0.119629	
2457.5	-0.119934	
2458	-0.119629	
2458.5	-0.119934	
2459	-0.119324	
2459.5	-0.119629	
2460	-0.119629	
2460.5	-0.119629	
2461	-0.120239	
2461.5	-0.119934	
2462	-0.120239	
2462.5	-0.120239	
2463	-0.119934	
2463.5	-0.120239	
2464	-0.120239	
2464.5	-0.119324	
2465	-0.119629	
2465.5	-0.120239	
2466	-0.119629	
2466.5	-0.119934	
2467	-0.120239	
2467.5	-0.119629	
2468	-0.119629	
2468.5	-0.120239	
2469	-0.120239	
2469.5	-0.119934	
2470	-0.119629	
2470.5	-0.119934	
2471	-0.120239	
2471.5	-0.119629	
2472	-0.120239	
2472.5	-0.116577	
2473	-0.115356	
2473.5	-0.115356	
2474	-0.115662	
2474.5	-0.115356	
2475	-0.115356	
2475.5	-0.115051	
2476	-0.114746	
2476.5	-0.115356	
2477	-0.115051	
2477.5	-0.115662	
2478	-0.114136	
2478.5	-0.114746	
2479	-0.114746	
2479.5	-0.114746	
2480	-0.115051	
2480.5	-0.114746	
2481	-0.115051	
2481.5	-0.115051	
2482	-0.115662	
2482.5	-0.114441	
2483	-0.115051	
2483.5	-0.114746	
2484	-0.115356	
2484.5	-0.115051	
2485	-0.114746	
2485.5	-0.115051	
2486	-0.114746	
2486.5	-0.114746	
2487	-0.115356	
2487.5	-0.115356	
2488	-0.114746	
2488.5	-0.114746	
2489	-0.115051	
2489.5	-0.115051	
2490	-0.115051	
2490.5	-0.115356	
2491	-0.115356	
2491.5	-0.114441	
2492	-0.115356	
2492.5	-0.115662	
2493	-0.115356	
2493.5	-0.115051	
2494	-0.115356	
2494.5	-0.115051	
2495	-0.114746	
2495.5	-0.115356	
2496	-0.114746	
2496.5	-0.115356	
2497	-0.115051	
2497.5	-0.115051	
2498	-0.114746	
2498.5	-0.115662	
2499	-0.115356	
2499.5	-0.114746	
2500	-0.114746	
2500.5	-0.115051	
2501	-0.115051	
2501.5	-0.114746	
2502	-0.115051	
2502.5	-0.114746	
2503	-0.115051	
2503.5	-0.115356	
2504	-0.114746	
2504.5	-0.114746	
2505	-0.114136	
2505.5	-0.114441	
2506	-0.115662	
2506.5	-0.115662	
2507	-0.115356	
2507.5	-0.115051	
2508	-0.114441	
2508.5	-0.115051	
2509	-0.114746	
2509.5	-0.115051	
2510	-0.115356	
2510.5	-0.115051	
2511	-0.115356	
2511.5	-0.115051	
2512	-0.114441	
2512.5	-0.115051	
2513	-0.115051	
2513.5	-0.114746	
2514	-0.115051	
2514.5	-0.114746	
2515	-0.115662	
2515.5	-0.115356	
2516	-0.115051	
2516.5	-0.115051	
2517	-0.115051	
2517.5	-0.115051	
2518	-0.115051	
2518.5	-0.115051	
2519	-0.114746	
2519.5	-0.115051	
2520	-0.114746	
2520.5	-0.115356	
2521	-0.115051	
2521.5	-0.115051	
2522	-0.114441	
2522.5	-0.114746	
2523	-0.115356	
2523.5	-0.114746	
2524	-0.114746	
2524.5	-0.114746	
2525	-0.115051	
2525.5	-0.115051	
2526	-0.115356	
2526.5	-0.114746	
2527	-0.114746	
2527.5	-0.114746	
2528	-0.114746	
2528.5	-0.115051	
2529	-0.113831	
2529.5	-0.111389	
2530	-0.109863	
2530.5	-0.109863	
2531	-0.109863	
2531.5	-0.110168	
2532	-0.110474	
2532.5	-0.109863	
2533	-0.109863	
2533.5	-0.109863	
2534	-0.110168	
2534.5	-0.109863	
2535	-0.109863	
2535.5	-0.110168	
2536	-0.110474	
2536.5	-0.110168	
2537	-0.109863	
2537.5	-0.110168	
2538	-0.110168	
2538.5	-0.110779	
2539	-0.110168	
2539.5	-0.110779	
2540	-0.109558	
2540.5	-0.110474	
2541	-0.110168	
2541.5	-0.110168	
2542	-0.109863	
2542.5	-0.110168	
2543	-0.109253	
2543.5	-0.110168	
2544	-0.109863	
2544.5	-0.110474	
2545	-0.110168	
2545.5	-0.110168	
2546	-0.110474	
2546.5	-0.110168	
2547	-0.110474	
2547.5	-0.110779	
2548	-0.110474	
2548.5	-0.110474	
2549	-0.109253	
2549.5	-0.110474	
2550	-0.110474	
2550.5	-0.109863	
2551	-0.110168	
2551.5	-0.109863	
2552	-0.110474	
2552.5	-0.109253	
2553	-0.109253	
2553.5	-0.109558	
2554	-0.110168	
2554.5	-0.110168	
2555	-0.110168	
2555.5	-0.109558	
2556	-0.110168	
2556.5	-0.110168	
2557	-0.110168	
2557.5	-0.110168	
2558	-0.109558	
2558.5	-0.110168	
2559	-0.110168	
2559.5	-0.109863	
2560	-0.110168	
2560.5	-0.110168	
2561	-0.109863	
2561.5	-0.109253	
2562	-0.109863	
2562.5	-0.109558	
2563	-0.109863	
2563.5	-0.109558	
2564	-0.110168	
2564.5	-0.110168	
2565	-0.110168	
2565.5	-0.109863	
2566	-0.109558	
2566.5	-0.110168	
2567	-0.110474	
2567.5	-0.110168	
2568	-0.110474	
2568.5	-0.109863	
2569	-0.110168	
2569.5	-0.109863	
2570	-0.110779	
2570.5	-0.109558	
2571	-0.109558	
2571.5	-0.110474	
2572	-0.110168	
2572.5	-0.110168	
2573	-0.109253	
2573.5	-0.110779	
2574	-0.110474	
2574.5	-0.110474	
2575	-0.110168	
2575.5	-0.109863	
2576	-0.110168	
2576.5	-0.109863	
2577	-0.106812	
2577.5	-0.10498	
2578	-0.10498	
2578.5	-0.10498	
2579	-0.105286	
2579.5	-0.105286	
2580	-0.104675	
2580.5	-0.10498	
2581	-0.105286	
2581.5	-0.10437	
2582	-0.105591	
2582.5	-0.105286	
2583	-0.10498	
2583.5	-0.105591	
2584	-0.10498	
2584.5	-0.10498	
2585	-0.10498	
2585.5	-0.104675	
2586	-0.10498	
2586.5	-0.105286	
2587	-0.104675	
2587.5	-0.104675	
2588	-0.104675	
2588.5	-0.10498	
2589	-0.105286	
2589.5	-0.104675	
2590	-0.10498	
2590.5	-0.10498	
2591	-0.10498	
2591.5	-0.10498	
2592	-0.10498	
2592.5	-0.10498	
2593	-0.10498	
2593.5	-0.10437	
2594	-0.10498	
2594.5	-0.104675	
2595	-0.105286	
2595.5	-0.105286	
2596	-0.105896	
2596.5	-0.105591	
2597	-0.104675	
2597.5	-0.104675	
2598	-0.105286	
2598.5	-0.105591	
2599	-0.10498	
2599.5	-0.105286	
2600	-0.105286	
2600.5	-0.105286	
2601	-0.10498	
2601.5	-0.105286	
2602	-0.105286	
2602.5	-0.10437	
2603	-0.105286	
2603.5	-0.10498	
2604	-0.10498	
2604.5	-0.10498	
2605	-0.105286	
2605.5	-0.104675	
2606	-0.105591	
2606.5	-0.10498	
2607	-0.105591	
2607.5	-0.105591	
2608	-0.102234	
2608.5	-0.100403	
2609	-0.100403	
2609.5	-0.100403	
2610	-0.100403	
2610.5	-0.100098	
2611	-0.100403	
2611.5	-0.0997925	
2612	-0.100708	
2612.5	-0.100098	
2613	-0.100098	
2613.5	-0.100403	
2614	-0.100098	
2614.5	-0.100098	
2615	-0.100403	
2615.5	-0.100098	
2616	-0.0997925	
2616.5	-0.100098	
2617	-0.0982666	
2617.5	-0.0961304	
2618	-0.0952148	
2618.5	-0.09552	
2619	-0.0949097	
2619.5	-0.09552	
2620	-0.0958252	
2620.5	-0.09552	
2621	-0.0949097	
2621.5	-0.0958252	
2622	-0.0952148	
2622.5	-0.09552	
2623	-0.0927734	
2623.5	-0.0906372	
2624	-0.0906372	
2624.5	-0.090332	
2625	-0.0897217	
2625.5	-0.0900269	
2626	-0.0909424	
2626.5	-0.090332	
2627	-0.0888062	
2627.5	-0.0866699	
2628	-0.0860596	
2628.5	-0.0857544	
2629	-0.0854492	
2629.5	-0.0854492	
2630	-0.0854492	
2630.5	-0.0857544	
2631	-0.0839233	
2631.5	-0.0811768	
2632	-0.0805664	
2632.5	-0.0808716	
2633	-0.0808716	
2633.5	-0.0805664	
2634	-0.0787354	
2634.5	-0.0762939	
2635	-0.0759888	
2635.5	-0.0753784	
2636	-0.0765991	
2636.5	-0.0738525	
2637	-0.0723267	
2637.5	-0.071106	
2638	-0.0704956	
2638.5	-0.071106	
2639	-0.0689697	
2639.5	-0.0668335	
2640	-0.0662231	
2640.5	-0.0656128	
2641	-0.0662231	
2641.5	-0.0643921	
2642	-0.062561	
2642.5	-0.0613403	
2643	-0.0616455	
2643.5	-0.0592041	
2644	-0.0570679	
2644.5	-0.0564575	
2645	-0.0564575	
2645.5	-0.0546265	
2646	-0.0524902	
2646.5	-0.0515747	
2647	-0.0512695	
2647.5	-0.0497437	
2648	-0.0476074	
2648.5	-0.0466919	
2649	-0.0454712	
2649.5	-0.0418091	
2650	-0.0415039	
2650.5	-0.0415039	
2651	-0.0402832	
2651.5	-0.0378418	
2652	-0.0366211	
2652.5	-0.0350952	
2653	-0.0323486	
2653.5	-0.0314331	
2654	-0.0302124	
2654.5	-0.027771	
2655	-0.0271606	
2655.5	-0.0259399	
2656	-0.0228882	
2656.5	-0.022583	
2657	-0.0204468	
2657.5	-0.0183105	
2658	-0.0170898	
2658.5	-0.015564	
2659	-0.0137329	
2659.5	-0.0119019	
2660	-0.0106812	
2660.5	-0.00823975	
2661	-0.00701904	
2661.5	-0.00610352	
2662	-0.00335693	
2662.5	-0.00183105	
2663	0.00183105	
2663.5	0.00274658	
2664	0.00396729	
2664.5	0.00579834	
2665	0.00732422	
2665.5	0.00854492	
2666	0.0112915	
2666.5	0.0134277	
2667	0.0152588	
2667.5	0.0167847	
2668	0.0183105	
2668.5	0.0210571	
2669	0.0231934	
2669.5	0.0259399	
2670	0.0262451	
2670.5	0.0283813	
2671	0.0302124	
2671.5	0.0326538	
2672	0.0357056	
2672.5	0.0360107	
2673	0.0378418	
2673.5	0.0405884	
2674	0.0424194	
2674.5	0.0460815	
2675	0.0463867	
2675.5	0.0473022	
2676	0.050354	
2676.5	0.0527954	
2677	0.055542	
2677.5	0.057373	
2678	0.0604248	
2678.5	0.0622559	
2679	0.062561	
2679.5	0.0650024	
2680	0.0665283	
2680.5	0.0704956	
2681	0.0714111	
2681.5	0.0753784	
2682	0.0759888	
2682.5	0.0772095	
2683	0.0799561	
2683.5	0.0808716	
2684	0.0836182	
2684.5	0.0854492	
2685	0.0863647	
2685.5	0.0894165	
2686	0.0912476	
2686.5	0.093689	
2687	0.0961304	
2687.5	0.098877	
2688	0.0997925	
2688.5	0.101013	
2689	0.10376	
2689.5	0.105591	
2690	0.108643	
2690.5	0.109558	
2691	0.110779	
2691.5	0.113525	
2692	0.114746	
2692.5	0.117493	
2693	0.119324	
2693.5	0.120544	
2694	0.122681	
2694.5	0.124817	
2695	0.127563	
2695.5	0.130005	
2696	0.132141	
2696.5	0.134888	
2697	0.135193	
2697.5	0.137329	
2698	0.138855	
2698.5	0.139771	
2699	0.142517	
2699.5	0.144958	
2700	0.147095	
2700.5	0.148926	
2701	0.149536	
2701.5	0.152893	
2702	0.153809	
2702.5	0.157471	
2703	0.158386	
2703.5	0.159912	
2704	0.162354	
2704.5	0.163269	
2705	0.164795	
2705.5	0.166626	
2706	0.169067	
2706.5	0.172119	
2707	0.173645	
2707.5	0.174255	
2708	0.177307	
2708.5	0.178528	
2709	0.179443	
2709.5	0.18158	
2710	0.182495	
2710.5	0.184021	
2711	0.187073	
2711.5	0.188293	
2712	0.188599	
2712.5	0.19165	
2713	0.193176	
2713.5	0.193787	
2714	0.196533	
2714.5	0.197449	
2715	0.198975	
2715.5	0.201111	
2716	0.203247	
2716.5	0.202942	
2717	0.203552	
2717.5	0.206299	
2718	0.207825	
2718.5	0.207825	
2719	0.211487	
2719.5	0.212708	
2720	0.213623	
2720.5	0.21637	
2721	0.217285	
2721.5	0.217896	
2722	0.217896	
2722.5	0.220947	
2723	0.222473	
2723.5	0.222778	
2724	0.223083	
2724.5	0.225525	
2725	0.226746	
2725.5	0.227966	
2726	0.228271	
2726.5	0.230408	
2727	0.231628	
2727.5	0.233154	
2728	0.232849	
2728.5	0.235291	
2729	0.237122	
2729.5	0.237732	
2730	0.237732	
2730.5	0.238037	
2731	0.240173	
2731.5	0.241699	
2732	0.24231	
2732.5	0.242615	
2733	0.245667	
2733.5	0.246277	
2734	0.247803	
2734.5	0.247498	
2735	0.247192	
2735.5	0.247192	
2736	0.249634	
2736.5	0.25177	
2737	0.252686	
2737.5	0.25238	
2738	0.252686	
2738.5	0.254822	
2739	0.256958	
2739.5	0.256653	
2740	0.257874	
2740.5	0.257874	
2741	0.258179	
2741.5	0.256958	
2742	0.26062	
2742.5	0.26123	
2743	0.261841	
2743.5	0.262451	
2744	0.262451	
2744.5	0.262451	
2745	0.261841	
2745.5	0.264587	
2746	0.266724	
2746.5	0.267029	
2747	0.267029	
2747.5	0.267334	
2748	0.267334	
2748.5	0.266724	
2749	0.267334	
2749.5	0.269775	
2750	0.271301	
2750.5	0.272217	
2751	0.272217	
2751.5	0.272522	
2752	0.271912	
2752.5	0.272827	
2753	0.272522	
2753.5	0.272522	
2754	0.270996	
2754.5	0.272217	
2755	0.273743	
2755.5	0.275574	
2756	0.276184	
2756.5	0.277405	
2757	0.2771	
2757.5	0.2771	
2758	0.2771	
2758.5	0.2771	
2759	0.276794	
2759.5	0.2771	
2760	0.277405	
2760.5	0.276489	
2761	0.276489	
2761.5	0.2771	
2762	0.2771	
2762.5	0.27832	
2763	0.280762	
2763.5	0.281677	
2764	0.281677	
2764.5	0.282288	
2765	0.282288	
2765.5	0.281677	
2766	0.282288	
2766.5	0.282288	
2767	0.282288	
2767.5	0.281677	
2768	0.281982	
2768.5	0.281982	
2769	0.282288	
2769.5	0.282288	
2770	0.281677	
2770.5	0.281982	
2771	0.281982	
2771.5	0.281677	
2772	0.281677	
2772.5	0.281982	
2773	0.282288	
2773.5	0.282288	
2774	0.281372	
2774.5	0.281677	
2775	0.281677	
2775.5	0.281372	
2776	0.282288	
2776.5	0.282288	
2777	0.281372	
2777.5	0.281372	
2778	0.282593	
2778.5	0.281372	
2779	0.281677	
2779.5	0.282288	
2780	0.281982	
2780.5	0.281677	
2781	0.281982	
2781.5	0.281677	
2782	0.281982	
2782.5	0.281372	
2783	0.281677	
2783.5	0.282288	
2784	0.281677	
2784.5	0.281677	
2785	0.282288	
2785.5	0.281982	
2786	0.282288	
2786.5	0.281677	
2787	0.281982	
2787.5	0.281372	
2788	0.281982	
2788.5	0.281677	
2789	0.282593	
2789.5	0.281982	
2790	0.281982	
2790.5	0.282288	
2791	0.281372	
2791.5	0.281067	
2792	0.281677	
2792.5	0.281677	
2793	0.281982	
2793.5	0.281372	
2794	0.281982	
2794.5	0.281982	
2795	0.281982	
2795.5	0.282288	
2796	0.281982	
2796.5	0.281677	
2797	0.281677	
2797.5	0.281982	
2798	0.281677	
2798.5	0.281372	
2799	0.281982	
2799.5	0.282288	
2800	0.281982	
2800.5	0.281677	
2801	0.282288	
2801.5	0.281372	
2802	0.282288	
2802.5	0.281677	
2803	0.281677	
2803.5	0.281067	
2804	0.27832	
2804.5	0.27771	
2805	0.276794	
2805.5	0.2771	
2806	0.276794	
2806.5	0.2771	
2807	0.276794	
2807.5	0.276794	
2808	0.2771	
2808.5	0.2771	
2809	0.277405	
2809.5	0.276794	
2810	0.2771	
2810.5	0.277405	
2811	0.2771	
2811.5	0.276489	
2812	0.276794	
2812.5	0.27771	
2813	0.2771	
2813.5	0.277405	
2814	0.276794	
2814.5	0.273743	
2815	0.272827	
2815.5	0.272217	
2816	0.271912	
2816.5	0.272522	
2817	0.271606	
2817.5	0.271912	
2818	0.272217	
2818.5	0.272217	
2819	0.272217	
2819.5	0.271912	
2820	0.272217	
2820.5	0.271912	
2821	0.271912	
2821.5	0.272217	
2822	0.271912	
2822.5	0.26886	
2823	0.267639	
2823.5	0.267639	
2824	0.267029	
2824.5	0.267334	
2825	0.267639	
2825.5	0.267029	
2826	0.266724	
2826.5	0.267029	
2827	0.267029	
2827.5	0.267029	
2828	0.266724	
2828.5	0.267334	
2829	0.267029	
2829.5	0.263977	
2830	0.262451	
2830.5	0.262756	
2831	0.262146	
2831.5	0.262146	
2832	0.262451	
2832.5	0.262451	
2833	0.262451	
2833.5	0.261841	
2834	0.262146	
2834.5	0.262451	
2835	0.261841	
2835.5	0.259399	
2836	0.258179	
2836.5	0.257568	
2837	0.256958	
2837.5	0.256958	
2838	0.257263	
2838.5	0.257263	
2839	0.257263	
2839.5	0.257874	
2840	0.256958	
2840.5	0.255127	
2841	0.253296	
2841.5	0.252075	
2842	0.25177	
2842.5	0.25238	
2843	0.25238	
2843.5	0.25238	
2844	0.25238	
2844.5	0.252075	
2845	0.252686	
2845.5	0.249634	
2846	0.248108	
2846.5	0.247498	
2847	0.246887	
2847.5	0.246887	
2848	0.246887	
2848.5	0.246887	
2849	0.247498	
2849.5	0.246582	
2850	0.244446	
2850.5	0.242615	
2851	0.24292	
2851.5	0.243225	
2852	0.242615	
2852.5	0.24231	
2853	0.24231	
2853.5	0.242004	
2854	0.239868	
2854.5	0.237732	
2855	0.238342	
2855.5	0.237427	
2856	0.237122	
2856.5	0.237732	
2857	0.237732	
2857.5	0.237427	
2858	0.235596	
2858.5	0.233765	
2859	0.232544	
2859.5	0.232544	
2860	0.232849	
2860.5	0.232849	
2861	0.232849	
2861.5	0.230103	
2862	0.228577	
2862.5	0.228271	
2863	0.227661	
2863.5	0.228271	
2864	0.227356	
2864.5	0.227661	
2865	0.22583	
2865.5	0.223694	
2866	0.224609	
2866.5	0.222778	
2867	0.223389	
2867.5	0.223083	
2868	0.220642	
2868.5	0.218201	
2869	0.217896	
2869.5	0.218201	
2870	0.218201	
2870.5	0.218201	
2871	0.218811	
2871.5	0.215454	
2872	0.214233	
2872.5	0.213318	
2873	0.213013	
2873.5	0.212708	
2874	0.213318	
2874.5	0.211182	
2875	0.209351	
2875.5	0.20813	
2876	0.208435	
2876.5	0.207825	
2877	0.208435	
2877.5	0.206299	
2878	0.204468	
2878.5	0.203857	
2879	0.203552	
2879.5	0.203247	
2880	0.203247	
2880.5	0.201721	
2881	0.198975	
2881.5	0.198364	
2882	0.198364	
2882.5	0.198364	
2883	0.196838	
2883.5	0.194397	
2884	0.193481	
2884.5	0.193787	
2885	0.193176	
2885.5	0.193481	
2886	0.192261	
2886.5	0.189514	
2887	0.189209	
2887.5	0.188904	
2888	0.189209	
2888.5	0.188904	
2889	0.186462	
2889.5	0.184937	
2890	0.184021	
2890.5	0.183716	
2891	0.183716	
2891.5	0.181885	
2892	0.180054	
2892.5	0.178528	
2893	0.178528	
2893.5	0.178833	
2894	0.178528	
2894.5	0.177917	
2895	0.174866	
2895.5	0.174255	
2896	0.173645	
2896.5	0.17395	
2897	0.17395	
2897.5	0.173035	
2898	0.169678	
2898.5	0.169678	
2899	0.169067	
2899.5	0.168762	
2900	0.168762	
2900.5	0.167847	
2901	0.164795	
2901.5	0.164185	
2902	0.163879	
2902.5	0.163269	
2903	0.162048	
2903.5	0.160522	
2904	0.159607	
2904.5	0.158997	
2905	0.159302	
2905.5	0.158997	
2906	0.157776	
2906.5	0.15625	
2907	0.154419	
2907.5	0.154114	
2908	0.154114	
2908.5	0.154724	
2909	0.152893	
2909.5	0.150757	
2910	0.149841	
2910.5	0.149536	
2911	0.149536	
2911.5	0.149841	
2912	0.148621	
2912.5	0.145264	
2913	0.144348	
2913.5	0.144958	
2914	0.144348	
2914.5	0.144043	
2915	0.143433	
2915.5	0.140381	
2916	0.139771	
2916.5	0.139465	
2917	0.13916	
2917.5	0.139465	
2918	0.137939	
2918.5	0.135803	
2919	0.135193	
2919.5	0.135193	
2920	0.134583	
2920.5	0.134583	
2921	0.133667	
2921.5	0.13092	
2922	0.13031	
2922.5	0.129395	
2923	0.129395	
2923.5	0.130005	
2924	0.128479	
2924.5	0.125732	
2925	0.124817	
2925.5	0.125122	
2926	0.124817	
2926.5	0.124207	
2927	0.123901	
2927.5	0.12085	
2928	0.120544	
2928.5	0.120239	
2929	0.119629	
2929.5	0.120239	
2930	0.119019	
2930.5	0.119324	
2931	0.116577	
2931.5	0.115356	
2932	0.114746	
2932.5	0.115662	
2933	0.114441	
2933.5	0.115356	
2934	0.113831	
2934.5	0.111389	
2935	0.110779	
2935.5	0.110168	
2936	0.110168	
2936.5	0.110168	
2937	0.109253	
2937.5	0.107422	
2938	0.105286	
2938.5	0.105896	
2939	0.10498	
2939.5	0.106201	
2940	0.10498	
2940.5	0.104675	
2941	0.101624	
2941.5	0.100403	
2942	0.100403	
2942.5	0.100403	
2943	0.100708	
2943.5	0.0997925	
2944	0.100708	
2944.5	0.0994873	
2945	0.0967407	
2945.5	0.0952148	
2946	0.0952148	
2946.5	0.0949097	
2947	0.09552	
2947.5	0.0958252	
2948	0.0946045	
2948.5	0.0918579	
2949	0.090332	
2949.5	0.0906372	
2950	0.0900269	
2950.5	0.090332	
2951	0.090332	
2951.5	0.090332	
2952	0.0906372	
2952.5	0.0872803	
2953	0.0857544	
2953.5	0.0854492	
2954	0.0857544	
2954.5	0.0854492	
2955	0.0860596	
2955.5	0.0854492	
2956	0.085144	
2956.5	0.0827026	
2957	0.0802612	
2957.5	0.0811768	
2958	0.0802612	
2958.5	0.0805664	
2959	0.0796509	
2959.5	0.0805664	
2960	0.0808716	
2960.5	0.0802612	
2961	0.0787354	
2961.5	0.0759888	
2962	0.0765991	
2962.5	0.0762939	
2963	0.0759888	
2963.5	0.0762939	
2964	0.0759888	
2964.5	0.0762939	
2965	0.0759888	
2965.5	0.072937	
2966	0.0717163	
2966.5	0.0717163	
2967	0.071106	
2967.5	0.0704956	
2968	0.071106	
2968.5	0.071106	
2969	0.071106	
2969.5	0.0714111	
2970	0.0683594	
2970.5	0.0668335	
2971	0.0668335	
2971.5	0.0668335	
2972	0.0665283	
2972.5	0.065918	
2973	0.0665283	
2973.5	0.0662231	
2974	0.065918	
2974.5	0.0656128	
2975	0.0637817	
2975.5	0.0622559	
2976	0.0616455	
2976.5	0.0616455	
2977	0.0616455	
2977.5	0.0613403	
2978	0.0613403	
2978.5	0.0613403	
2979	0.0613403	
2979.5	0.06073	
2980	0.0588989	
2980.5	0.057373	
2981	0.0561523	
2981.5	0.0564575	
2982	0.0564575	
2982.5	0.0564575	
2983	0.0564575	
2983.5	0.0567627	
2984	0.0567627	
2984.5	0.0567627	
2985	0.0567627	
2985.5	0.0543213	
2986	0.0521851	
2986.5	0.0521851	
2987	0.0515747	
2987.5	0.0518799	
2988	0.0512695	
2988.5	0.0518799	
2989	0.0515747	
2989.5	0.0521851	
2990	0.0518799	
2990.5	0.0518799	
2991	0.0518799	
2991.5	0.0494385	
2992	0.0473022	
2992.5	0.0466919	
2993	0.0466919	
2993.5	0.0469971	
2994	0.0466919	
2994.5	0.0469971	
2995	0.0469971	
2995.5	0.0473022	
2996	0.0469971	
2996.5	0.0469971	
2997	0.0469971	
2997.5	0.0454712	
2998	0.0424194	
2998.5	0.0421143	
2999	0.0421143	
2999.5	0.0424194	
3000	0.0424194	
3000.5	0.0424194	
3001	0.0415039	
3001.5	0.0424194	
3002	0.0421143	
3002.5	0.0415039	
3003	0.0418091	
3003.5	0.039978	
3004	0.038147	
3004.5	0.0372314	
3005	0.0369263	
3005.5	0.0366211	
3006	0.0366211	
3006.5	0.0369263	
3007	0.0372314	
3007.5	0.0372314	
3008	0.0366211	
3008.5	0.0366211	
3009	0.0369263	
3009.5	0.0369263	
3010	0.0350952	
3010.5	0.032959	
3011	0.0317383	
3011.5	0.0323486	
3012	0.0317383	
3012.5	0.0320435	
3013	0.0320435	
3013.5	0.0320435	
3014	0.0317383	
3014.5	0.0317383	
3015	0.0323486	
3015.5	0.0323486	
3016	0.0320435	
3016.5	0.0323486	
3017	0.0296021	
3017.5	0.0280762	
3018	0.0274658	
3018.5	0.0274658	
3019	0.0268555	
3019.5	0.0268555	
3020	0.0271606	
3020.5	0.0271606	
3021	0.0268555	
3021.5	0.0274658	
3022	0.0271606	
3022.5	0.0268555	
3023	0.027771	
3023.5	0.0253296	
3024	0.0238037	
3024.5	0.0222778	
3025	0.0222778	
3025.5	0.0219727	
3026	0.022583	
3026.5	0.0219727	
3027	0.022583	
3027.5	0.022583	
3028	0.0216675	
3028.5	0.0222778	
3029	0.0219727	
3029.5	0.0219727	
3030	0.0210571	
3030.5	0.0180054	
3031	0.0177002	
3031.5	0.017395	
3032	0.0170898	
3032.5	0.0170898	
3033	0.017395	
3033.5	0.0177002	
3034	0.017395	
3034.5	0.0170898	
3035	0.0177002	
3035.5	0.0180054	
3036	0.0170898	
3036.5	0.0167847	
3037	0.0164795	
3037.5	0.0137329	
3038	0.0125122	
3038.5	0.0119019	
3039	0.012207	
3039.5	0.0125122	
3040	0.012207	
3040.5	0.0115967	
3041	0.0125122	
3041.5	0.0119019	
3042	0.012207	
3042.5	0.0119019	
3043	0.012207	
3043.5	0.0109863	
3044	0.0088501	
3044.5	0.00762939	
3045	0.00762939	
3045.5	0.00762939	
3046	0.00793457	
3046.5	0.00732422	
3047	0.00762939	
3047.5	0.00701904	
3048	0.00732422	
3048.5	0.00701904	
3049	0.00823975	
3049.5	0.00732422	
3050	0.00640869	
3050.5	0.00457764	
3051	0.00305176	
3051.5	0.00244141	
3052	0.00274658	
3052.5	0.00305176	
3053	0.00213623	
3053.5	0.00213623	
3054	0.00244141	
3054.5	0.00305176	
3055	0.00244141	
3055.5	0.00274658	
3056	0.00213623	
3056.5	0.00183105	
3057	-0.000915527	
3057.5	-0.00183105	
3058	-0.00274658	
3058.5	-0.00305176	
3059	-0.00213623	
3059.5	-0.00244141	
3060	-0.00244141	
3060.5	-0.00213623	
3061	-0.00213623	
3061.5	-0.00213623	
3062	-0.00244141	
3062.5	-0.00244141	
3063	-0.00549316	
3063.5	-0.00701904	
3064	-0.00701904	
3064.5	-0.00671387	
3065	-0.00701904	
3065.5	-0.00762939	
3066	-0.00732422	
3066.5	-0.00732422	
3067	-0.00732422	
3067.5	-0.00701904	
3068	-0.00793457	
3068.5	-0.00732422	
3069	-0.00793457	
3069.5	-0.0106812	
3070	-0.0125122	
3070.5	-0.012207	
3071	-0.012207	
3071.5	-0.012207	
3072	-0.0119019	
3072.5	-0.0125122	
3073	-0.012207	
3073.5	-0.012207	
3074	-0.0125122	
3074.5	-0.0128174	
3075	-0.0158691	
3075.5	-0.0161743	
3076	-0.017395	
3076.5	-0.0164795	
3077	-0.0167847	
3077.5	-0.0167847	
3078	-0.017395	
3078.5	-0.0167847	
3079	-0.017395	
3079.5	-0.0170898	
3080	-0.0170898	
3080.5	-0.017395	
3081	-0.0204468	
3081.5	-0.0216675	
3082	-0.0222778	
3082.5	-0.022583	
3083	-0.022583	
3083.5	-0.0222778	
3084	-0.0222778	
3084.5	-0.0216675	
3085	-0.0216675	
3085.5	-0.0222778	
3086	-0.0222778	
3086.5	-0.0250244	
3087	-0.0262451	
3087.5	-0.0271606	
3088	-0.0262451	
3088.5	-0.0274658	
3089	-0.0268555	
3089.5	-0.0265503	
3090	-0.0265503	
3090.5	-0.0271606	
3091	-0.027771	
3091.5	-0.0265503	
3092	-0.0305176	
3092.5	-0.0311279	
3093	-0.0317383	
3093.5	-0.0314331	
3094	-0.0314331	
3094.5	-0.0314331	
3095	-0.0320435	
3095.5	-0.0320435	
3096	-0.0314331	
3096.5	-0.0317383	
3097	-0.0341797	
3097.5	-0.0363159	
3098	-0.0363159	
3098.5	-0.0372314	
3099	-0.0363159	
3099.5	-0.0366211	
3100	-0.0372314	
3100.5	-0.0369263	
3101	-0.0366211	
3101.5	-0.0375366	
3102	-0.0366211	
3102.5	-0.0396729	
3103	-0.0408936	
3103.5	-0.0411987	
3104	-0.0418091	
3104.5	-0.0421143	
3105	-0.0415039	
3105.5	-0.0411987	
3106	-0.0411987	
3106.5	-0.0411987	
3107	-0.0415039	
3107.5	-0.0418091	
3108	-0.0411987	
3108.5	-0.0439453	
3109	-0.0454712	
3109.5	-0.0466919	
3110	-0.0466919	
3110.5	-0.0469971	
3111	-0.0466919	
3111.5	-0.0466919	
3112	-0.0463867	
3112.5	-0.0460815	
3113	-0.0466919	
3113.5	-0.0463867	
3114	-0.0460815	
3114.5	-0.0494385	
3115	-0.0500488	
3115.5	-0.0515747	
3116	-0.0512695	
3116.5	-0.0512695	
3117	-0.0506592	
3117.5	-0.0515747	
3118	-0.0509644	
3118.5	-0.0512695	
3119	-0.0515747	
3119.5	-0.0506592	
3120	-0.0512695	
3120.5	-0.0506592	
3121	-0.0515747	
3121.5	-0.0537109	
3122	-0.055542	
3122.5	-0.055542	
3123	-0.0561523	
3123.5	-0.0564575	
3124	-0.0567627	
3124.5	-0.0564575	
3125	-0.0564575	
3125.5	-0.0558472	
3126	-0.0564575	
3126.5	-0.055542	
3127	-0.0558472	
3127.5	-0.0561523	
3128	-0.0558472	
3128.5	-0.0564575	
3129	-0.0564575	
3129.5	-0.0588989	
3130	-0.0604248	
3130.5	-0.06073	
3131	-0.0616455	
3131.5	-0.0604248	
3132	-0.0619507	
3132.5	-0.0610352	
3133	-0.0619507	
3133.5	-0.0610352	
3134	-0.0613403	
3134.5	-0.06073	
3135	-0.06073	
3135.5	-0.0613403	
3136	-0.0613403	
3136.5	-0.0610352	
3137	-0.0613403	
3137.5	-0.0616455	
3138	-0.0616455	
3138.5	-0.0622559	
3139	-0.062561	
3139.5	-0.0653076	
3140	-0.065918	
3140.5	-0.0662231	
3141	-0.0662231	
3141.5	-0.065918	
3142	-0.065918	
3142.5	-0.065918	
3143	-0.0665283	
3143.5	-0.0662231	
3144	-0.0662231	
3144.5	-0.065918	
3145	-0.065918	
3145.5	-0.0662231	
3146	-0.065918	
3146.5	-0.0653076	
3147	-0.065918	
3147.5	-0.0665283	
3148	-0.0662231	
3148.5	-0.0662231	
3149	-0.0665283	
3149.5	-0.0662231	
3150	-0.065918	
3150.5	-0.0662231	
3151	-0.0674438	
3151.5	-0.0695801	
3152	-0.071106	
3152.5	-0.0714111	
3153	-0.0714111	
3153.5	-0.0708008	
3154	-0.071106	
3154.5	-0.071106	
3155	-0.071106	
3155.5	-0.0717163	
3156	-0.0704956	
3156.5	-0.0704956	
3157	-0.0704956	
3157.5	-0.071106	
3158	-0.0714111	
3158.5	-0.0714111	
3159	-0.0708008	
3159.5	-0.0708008	
3160	-0.0714111	
3160.5	-0.071106	
3161	-0.0708008	
3161.5	-0.0704956	
3162	-0.0714111	
3162.5	-0.071106	
3163	-0.071106	
3163.5	-0.0704956	
3164	-0.071106	
3164.5	-0.0708008	
3165	-0.0714111	
3165.5	-0.071106	
3166	-0.0708008	
3166.5	-0.0708008	
3167	-0.0708008	
3167.5	-0.0723267	
3168	-0.0750732	
3168.5	-0.0756836	
3169	-0.0762939	
3169.5	-0.0750732	
3170	-0.0756836	
3170.5	-0.0756836	
3171	-0.0756836	
3171.5	-0.0759888	
3172	-0.0750732	
3172.5	-0.0759888	
3173	-0.0762939	
3173.5	-0.0765991	
3174	-0.0765991	
3174.5	-0.0759888	
3175	-0.0759888	
3175.5	-0.0769043	
3176	-0.0762939	
3176.5	-0.0765991	
3177	-0.0753784	
3177.5	-0.0753784	
3178	-0.0756836	
3178.5	-0.0765991	
3179	-0.0759888	
3179.5	-0.0759888	
3180	-0.0765991	
3180.5	-0.0756836	
3181	-0.0765991	
3181.5	-0.0759888	
3182	-0.0759888	
3182.5	-0.0762939	
3183	-0.0759888	
3183.5	-0.0762939	
3184	-0.0759888	
3184.5	-0.0759888	
3185	-0.0759888	
3185.5	-0.0759888	
3186	-0.0762939	
3186.5	-0.0759888	
3187	-0.0765991	
3187.5	-0.0759888	
3188	-0.0759888	
3188.5	-0.0759888	
3189	-0.0759888	
3189.5	-0.0762939	
3190	-0.0762939	
3190.5	-0.0756836	
3191	-0.0753784	
3191.5	-0.0762939	
3192	-0.0759888	
3192.5	-0.0759888	
3193	-0.0762939	
3193.5	-0.0762939	
3194	-0.0759888	
3194.5	-0.0762939	
3195	-0.0753784	
3195.5	-0.0762939	
3196	-0.0759888	
3196.5	-0.0762939	
3197	-0.0787354	
3197.5	-0.0796509	
3198	-0.0811768	
3198.5	-0.0805664	
3199	-0.0802612	
3199.5	-0.0802612	
3200	-0.0805664	
3200.5	-0.0796509	
3201	-0.0799561	
3201.5	-0.0805664	
3202	-0.0802612	
3202.5	-0.0802612	
3203	-0.0805664	
3203.5	-0.0805664	
3204	-0.0808716	
3204.5	-0.0802612	
3205	-0.0805664	
3205.5	-0.0805664	
3206	-0.0799561	
3206.5	-0.0799561	
3207	-0.0808716	
3207.5	-0.0802612	
3208	-0.0811768	
3208.5	-0.0805664	
3209	-0.0808716	
3209.5	-0.0811768	
3210	-0.0805664	
3210.5	-0.0811768	
3211	-0.0802612	
3211.5	-0.0808716	
3212	-0.0805664	
3212.5	-0.0805664	
3213	-0.0802612	
3213.5	-0.0799561	
3214	-0.0805664	
3214.5	-0.0802612	
3215	-0.0805664	
3215.5	-0.0802612	
3216	-0.0808716	
3216.5	-0.0808716	
3217	-0.0805664	
3217.5	-0.0784302	
3218	-0.0762939	
3218.5	-0.0759888	
3219	-0.0756836	
3219.5	-0.0759888	
3220	-0.0762939	
3220.5	-0.0762939	
3221	-0.0765991	
3221.5	-0.0762939	
3222	-0.0762939	
3222.5	-0.0759888	
3223	-0.0762939	
3223.5	-0.0762939	
3224	-0.0759888	
3224.5	-0.0753784	
3225	-0.0765991	
3225.5	-0.0756836	
3226	-0.0750732	
3226.5	-0.0756836	
3227	-0.0759888	
3227.5	-0.0765991	
3228	-0.0759888	
3228.5	-0.0762939	
3229	-0.0759888	
3229.5	-0.0762939	
3230	-0.0759888	
3230.5	-0.0759888	
3231	-0.0756836	
3231.5	-0.0756836	
3232	-0.0759888	
3232.5	-0.0762939	
3233	-0.0762939	
3233.5	-0.0759888	
3234	-0.0756836	
3234.5	-0.0759888	
3235	-0.0759888	
3235.5	-0.0765991	
3236	-0.0753784	
3236.5	-0.0759888	
3237	-0.0756836	
3237.5	-0.0759888	
3238	-0.0762939	
3238.5	-0.0762939	
3239	-0.0756836	
3239.5	-0.0759888	
3240	-0.0750732	
3240.5	-0.0762939	
3241	-0.0756836	
3241.5	-0.0765991	
3242	-0.0753784	
3242.5	-0.0759888	
3243	-0.0762939	
3243.5	-0.0759888	
3244	-0.0753784	
3244.5	-0.0759888	
3245	-0.0762939	
3245.5	-0.0753784	
3246	-0.0759888	
3246.5	-0.0759888	
3247	-0.0759888	
3247.5	-0.0759888	
3248	-0.0765991	
3248.5	-0.0753784	
3249	-0.0759888	
3249.5	-0.0756836	
3250	-0.0756836	
3250.5	-0.0759888	
3251	-0.0756836	
3251.5	-0.0762939	
3252	-0.0756836	
3252.5	-0.0756836	
3253	-0.0765991	
3253.5	-0.0762939	
3254	-0.0765991	
3254.5	-0.0756836	
3255	-0.0759888	
3255.5	-0.0762939	
3256	-0.0759888	
3256.5	-0.0762939	
3257	-0.0759888	
3257.5	-0.0765991	
3258	-0.0765991	
3258.5	-0.0759888	
3259	-0.0765991	
3259.5	-0.0759888	
3260	-0.0759888	
3260.5	-0.0762939	
3261	-0.0759888	
3261.5	-0.0762939	
3262	-0.0765991	
3262.5	-0.0756836	
3263	-0.0756836	
3263.5	-0.0762939	
3264	-0.0759888	
3264.5	-0.0762939	
3265	-0.0762939	
3265.5	-0.0753784	
3266	-0.0762939	
3266.5	-0.0762939	
3267	-0.0762939	
3267.5	-0.0762939	
3268	-0.0759888	
3268.5	-0.0765991	
3269	-0.0759888	
3269.5	-0.0762939	
3270	-0.0759888	
3270.5	-0.0750732	
3271	-0.0720215	
3271.5	-0.0714111	
3272	-0.0717163	
3272.5	-0.071106	
3273	-0.0708008	
3273.5	-0.0714111	
3274	-0.0704956	
3274.5	-0.0708008	
3275	-0.0708008	
3275.5	-0.071106	
3276	-0.071106	
3276.5	-0.071106	
3277	-0.0704956	
3277.5	-0.0708008	
3278	-0.0714111	
3278.5	-0.0714111	
3279	-0.0708008	
3279.5	-0.0708008	
3280	-0.0714111	
3280.5	-0.0704956	
3281	-0.071106	
3281.5	-0.0708008	
3282	-0.071106	
3282.5	-0.0704956	
3283	-0.071106	
3283.5	-0.0714111	
3284	-0.0717163	
3284.5	-0.0714111	
3285	-0.0708008	
3285.5	-0.0717163	
3286	-0.071106	
3286.5	-0.071106	
3287	-0.0708008	
3287.5	-0.0714111	
3288	-0.0704956	
3288.5	-0.071106	
3289	-0.071106	
3289.5	-0.0717163	
3290	-0.071106	
3290.5	-0.0708008	
3291	-0.0701904	
3291.5	-0.0708008	
3292	-0.0708008	
3292.5	-0.0708008	
3293	-0.0708008	
3293.5	-0.0714111	
3294	-0.071106	
3294.5	-0.0708008	
3295	-0.0714111	
3295.5	-0.0714111	
3296	-0.0704956	
3296.5	-0.0708008	
3297	-0.071106	
3297.5	-0.0708008	
3298	-0.071106	
3298.5	-0.0708008	
3299	-0.0708008	
3299.5	-0.0714111	
3300	-0.0714111	
3300.5	-0.0714111	
3301	-0.0708008	
3301.5	-0.071106	
3302	-0.0708008	
3302.5	-0.0714111	
3303	-0.0708008	
3303.5	-0.0714111	
3304	-0.0714111	
3304.5	-0.071106	
3305	-0.071106	
3305.5	-0.0714111	
3306	-0.071106	
3306.5	-0.071106	
3307	-0.0708008	
3307.5	-0.0717163	
3308	-0.0708008	
3308.5	-0.0717163	
3309	-0.071106	
3309.5	-0.0714111	
3310	-0.0708008	
3310.5	-0.071106	
3311	-0.0704956	
3311.5	-0.071106	
3312	-0.0714111	
3312.5	-0.071106	
3313	-0.071106	
3313.5	-0.0714111	
3314	-0.0714111	
3314.5	-0.0708008	
3315	-0.0714111	
3315.5	-0.0708008	
3316	-0.071106	
3316.5	-0.0714111	
3317	-0.0708008	
3317.5	-0.0708008	
3318	-0.071106	
3318.5	-0.071106	
3319	-0.071106	
3319.5	-0.0714111	
3320	-0.071106	
3320.5	-0.071106	
3321	-0.0704956	
3321.5	-0.0714111	
3322	-0.0708008	
3322.5	-0.0714111	
3323	-0.0708008	
3323.5	-0.0704956	
3324	-0.071106	
3324.5	-0.0708008	
3325	-0.0714111	
3325.5	-0.0714111	
3326	-0.071106	
3326.5	-0.0708008	
3327	-0.071106	
3327.5	-0.0708008	
3328	-0.0704956	
3328.5	-0.071106	
3329	-0.0704956	
3329.5	-0.071106	
3330	-0.0714111	
3330.5	-0.0708008	
3331	-0.0714111	
3331.5	-0.0708008	
3332	-0.0708008	
3332.5	-0.071106	
3333	-0.0704956	
3333.5	-0.0704956	
3334	-0.0708008	
3334.5	-0.071106	
3335	-0.071106	
3335.5	-0.0708008	
3336	-0.071106	
3336.5	-0.0717163	
3337	-0.071106	
3337.5	-0.0717163	
3338	-0.0708008	
3338.5	-0.0717163	
3339	-0.071106	
3339.5	-0.071106	
3340	-0.0708008	
3340.5	-0.0704956	
3341	-0.071106	
3341.5	-0.0714111	
3342	-0.071106	
3342.5	-0.071106	
3343	-0.0704956	
3343.5	-0.0714111	
3344	-0.071106	
3344.5	-0.071106	
3345	-0.0717163	
3345.5	-0.071106	
3346	-0.0708008	
3346.5	-0.0714111	
3347	-0.0717163	
3347.5	-0.0714111	
3348	-0.0704956	
3348.5	-0.0708008	
3349	-0.071106	
3349.5	-0.0714111	
3350	-0.0714111	
3350.5	-0.0708008	
3351	-0.071106	
3351.5	-0.0714111	
3352	-0.0708008	
3352.5	-0.071106	
3353	-0.0708008	
3353.5	-0.071106	
3354	-0.0714111	
3354.5	-0.0717163	
3355	-0.0714111	
3355.5	-0.0704956	
3356	-0.0714111	
3356.5	-0.071106	
3357	-0.0701904	
3357.5	-0.0708008	
3358	-0.071106	
3358.5	-0.071106	
3359	-0.0714111	
3359.5	-0.0708008	
3360	-0.0708008	
3360.5	-0.0708008	
3361	-0.0714111	
3361.5	-0.071106	
3362	-0.0708008	
3362.5	-0.071106	
3363	-0.0708008	
3363.5	-0.0708008	
3364	-0.0714111	
3364.5	-0.071106	
3365	-0.071106	
3365.5	-0.0717163	
3366	-0.0704956	
3366.5	-0.0714111	
3367	-0.0708008	
3367.5	-0.0714111	
3368	-0.0704956	
3368.5	-0.0714111	
3369	-0.0717163	
3369.5	-0.071106	
3370	-0.0708008	
3370.5	-0.0708008	
3371	-0.071106	
3371.5	-0.0714111	
3372	-0.0708008	
3372.5	-0.071106	
3373	-0.0714111	
3373.5	-0.071106	
3374	-0.0720215	
3374.5	-0.071106	
3375	-0.0714111	
3375.5	-0.0708008	
3376	-0.0708008	
3376.5	-0.0708008	
3377	-0.071106	
3377.5	-0.0708008	
3378	-0.0708008	
3378.5	-0.071106	
3379	-0.0714111	
3379.5	-0.0717163	
3380	-0.071106	
3380.5	-0.071106	
3381	-0.0708008	
3381.5	-0.0714111	
3382	-0.0714111	
3382.5	-0.071106	
3383	-0.071106	
3383.5	-0.071106	
3384	-0.071106	
3384.5	-0.071106	
3385	-0.0717163	
3385.5	-0.071106	
3386	-0.071106	
3386.5	-0.071106	
3387	-0.071106	
3387.5	-0.0708008	
3388	-0.071106	
3388.5	-0.0717163	
3389	-0.0704956	
3389.5	-0.071106	
3390	-0.0708008	
3390.5	-0.0704956	
3391	-0.071106	
3391.5	-0.071106	
3392	-0.0714111	
3392.5	-0.071106	
3393	-0.071106	
3393.5	-0.071106	
3394	-0.0704956	
3394.5	-0.071106	
3395	-0.071106	
3395.5	-0.0708008	
3396	-0.071106	
3396.5	-0.071106	
3397	-0.071106	
3397.5	-0.0708008	
3398	-0.071106	
3398.5	-0.071106	
3399	-0.0714111	
3399.5	-0.071106	
3400	-0.071106	
3400.5	-0.0708008	
3401	-0.0714111	
3401.5	-0.0704956	
3402	-0.0714111	
3402.5	-0.0714111	
3403	-0.071106	
3403.5	-0.0695801	
3404	-0.0665283	
3404.5	-0.0662231	
3405	-0.065918	
3405.5	-0.0662231	
3406	-0.0656128	
3406.5	-0.0662231	
3407	-0.065918	
3407.5	-0.0656128	
3408	-0.0662231	
3408.5	-0.0662231	
3409	-0.0665283	
3409.5	-0.0665283	
3410	-0.0656128	
3410.5	-0.0662231	
3411	-0.0662231	
3411.5	-0.0665283	
3412	-0.065918	
3412.5	-0.0662231	
3413	-0.0662231	
3413.5	-0.0656128	
3414	-0.065918	
3414.5	-0.065918	
3415	-0.065918	
3415.5	-0.0662231	
3416	-0.0643921	
3416.5	-0.0619507	
3417	-0.0610352	
3417.5	-0.0613403	
3418	-0.06073	
3418.5	-0.0619507	
3419	-0.06073	
3419.5	-0.0613403	
3420	-0.0613403	
3420.5	-0.0616455	
3421	-0.06073	
3421.5	-0.0610352	
3422	-0.0613403	
3422.5	-0.0610352	
3423	-0.0601196	
3423.5	-0.057373	
3424	-0.0558472	
3424.5	-0.0561523	
3425	-0.0558472	
3425.5	-0.0561523	
3426	-0.0561523	
3426.5	-0.0564575	
3427	-0.0561523	
3427.5	-0.0552368	
3428	-0.0521851	
3428.5	-0.0512695	
3429	-0.0512695	
3429.5	-0.0518799	
3430	-0.0512695	
3430.5	-0.0512695	
3431	-0.0509644	
3431.5	-0.0506592	
3432	-0.0479126	
3432.5	-0.0463867	
3433	-0.0457764	
3433.5	-0.0463867	
3434	-0.0466919	
3434.5	-0.0466919	
3435	-0.045166	
3435.5	-0.0430298	
3436	-0.0424194	
3436.5	-0.0411987	
3437	-0.0418091	
3437.5	-0.0408936	
3438	-0.0378418	
3438.5	-0.0360107	
3439	-0.0366211	
3439.5	-0.0366211	
3440	-0.0363159	
3440.5	-0.0354004	
3441	-0.032959	
3441.5	-0.0314331	
3442	-0.0317383	
3442.5	-0.0311279	
3443	-0.027771	
3443.5	-0.0274658	
3444	-0.0271606	
3444.5	-0.0265503	
3445	-0.0268555	
3445.5	-0.0234985	
3446	-0.0219727	
3446.5	-0.0222778	
3447	-0.0216675	
3447.5	-0.0192261	
3448	-0.0180054	
3448.5	-0.0164795	
3449	-0.0167847	
3449.5	-0.0134277	
3450	-0.0128174	
3450.5	-0.012207	
3451	-0.0115967	
3451.5	-0.0088501	
3452	-0.00793457	
3452.5	-0.00732422	
3453	-0.00610352	
3453.5	-0.00427246	
3454	-0.00274658	
3454.5	-0.0012207	
3455	0.00152588	
3455.5	0.00213623	
3456	0.00244141	
3456.5	0.00274658	
3457	0.00579834	
3457.5	0.00762939	
3458	0.00823975	
3458.5	0.0106812	
3459	0.0119019	
3459.5	0.012207	
3460	0.015564	
3460.5	0.0170898	
3461	0.0177002	
3461.5	0.0204468	
3462	0.0216675	
3462.5	0.0219727	
3463	0.0253296	
3463.5	0.0262451	
3464	0.0274658	
3464.5	0.0299072	
3465	0.0323486	
3465.5	0.0323486	
3466	0.0350952	
3466.5	0.0363159	
3467	0.0369263	
3467.5	0.0402832	
3468	0.0415039	
3468.5	0.0421143	
3469	0.0445557	
3469.5	0.0457764	
3470	0.0466919	
3470.5	0.0494385	
3471	0.0509644	
3471.5	0.0509644	
3472	0.0549316	
3472.5	0.0561523	
3473	0.0598145	
3473.5	0.0616455	
3474	0.0619507	
3474.5	0.0640869	
3475	0.0662231	
3475.5	0.0668335	
3476	0.0689697	
3476.5	0.0708008	
3477	0.0741577	
3477.5	0.0759888	
3478	0.0759888	
3478.5	0.0787354	
3479	0.0799561	
3479.5	0.0808716	
3480	0.0830078	
3480.5	0.085144	
3481	0.0888062	
3481.5	0.0900269	
3482	0.090332	
3482.5	0.0927734	
3483	0.0949097	
3483.5	0.0958252	
3484	0.0976563	
3484.5	0.100403	
3485	0.103149	
3485.5	0.10498	
3486	0.105286	
3486.5	0.107727	
3487	0.109253	
3487.5	0.109253	
3488	0.112915	
3488.5	0.114136	
3489	0.116882	
3489.5	0.119629	
3490	0.119019	
3490.5	0.121765	
3491	0.123901	
3491.5	0.124817	
3492	0.127869	
3492.5	0.129089	
3493	0.130005	
3493.5	0.132751	
3494	0.133362	
3494.5	0.136414	
3495	0.13855	
3495.5	0.139771	
3496	0.142212	
3496.5	0.143738	
3497	0.144653	
3497.5	0.146484	
3498	0.148621	
3498.5	0.149231	
3499	0.151672	
3499.5	0.153503	
3500	0.15625	
3500.5	0.158691	
3501	0.159607	
3501.5	0.161438	
3502	0.163574	
3502.5	0.163879	
3503	0.166626	
3503.5	0.167847	
3504	0.168152	
3504.5	0.171204	
3505	0.173645	
3505.5	0.17395	
3506	0.176697	
3506.5	0.177917	
3507	0.178528	
3507.5	0.180359	
3508	0.183105	
3508.5	0.1828	
3509	0.183105	
3509.5	0.185547	
3510	0.187378	
3510.5	0.188599	
3511	0.19043	
3511.5	0.192261	
3512	0.192566	
3512.5	0.195618	
3513	0.197449	
3513.5	0.198975	
3514	0.200806	
3514.5	0.202637	
3515	0.203247	
3515.5	0.203247	
3516	0.205078	
3516.5	0.20874	
3517	0.20752	
3517.5	0.209961	
3518	0.213013	
3518.5	0.212402	
3519	0.213623	
3519.5	0.215149	
3520	0.217285	
3520.5	0.217896	
3521	0.217896	
3521.5	0.219727	
3522	0.222778	
3522.5	0.222473	
3523	0.223999	
3523.5	0.22522	
3524	0.227356	
3524.5	0.227966	
3525	0.228271	
3525.5	0.229797	
3526	0.232239	
3526.5	0.232849	
3527	0.233154	
3527.5	0.23468	
3528	0.236816	
3528.5	0.237732	
3529	0.238037	
3529.5	0.237427	
3530	0.238647	
3530.5	0.241394	
3531	0.242004	
3531.5	0.24231	
3532	0.242004	
3532.5	0.244141	
3533	0.245972	
3533.5	0.246887	
3534	0.247192	
3534.5	0.247192	
3535	0.249634	
3535.5	0.252075	
3536	0.25238	
3536.5	0.25238	
3537	0.25238	
3537.5	0.254517	
3538	0.256042	
3538.5	0.257263	
3539	0.257568	
3539.5	0.257263	
3540	0.256653	
3540.5	0.258484	
3541	0.260925	
3541.5	0.262146	
3542	0.262451	
3542.5	0.262146	
3543	0.262146	
3543.5	0.261841	
3544	0.263672	
3544.5	0.266418	
3545	0.266724	
3545.5	0.266724	
3546	0.267334	
3546.5	0.267334	
3547	0.266724	
3547.5	0.26825	
3548	0.267944	
3548.5	0.270996	
3549	0.272217	
3549.5	0.272522	
3550	0.272217	
3550.5	0.271912	
3551	0.272217	
3551.5	0.271606	
3552	0.272217	
3552.5	0.274353	
3553	0.276184	
3553.5	0.276794	
3554	0.2771	
3554.5	0.2771	
3555	0.2771	
3555.5	0.2771	
3556	0.2771	
3556.5	0.276489	
3557	0.2771	
3557.5	0.2771	
3558	0.277405	
3558.5	0.280151	
3559	0.281982	
3559.5	0.281982	
3560	0.281067	
3560.5	0.282288	
3561	0.281372	
3561.5	0.281982	
3562	0.281677	
3562.5	0.282288	
3563	0.281982	
3563.5	0.282288	
3564	0.282288	
3564.5	0.282593	
3565	0.281372	
3565.5	0.282288	
3566	0.285339	
3566.5	0.28656	
3567	0.286865	
3567.5	0.28595	
3568	0.286255	
3568.5	0.28717	
3569	0.286255	
3569.5	0.28656	
3570	0.28656	
3570.5	0.28717	
3571	0.286865	
3571.5	0.286865	
3572	0.286865	
3572.5	0.28595	
3573	0.286865	
3573.5	0.287476	
3574	0.286865	
3574.5	0.286865	
3575	0.286255	
3575.5	0.286865	
3576	0.286865	
3576.5	0.28717	
3577	0.28656	
3577.5	0.28717	
3578	0.28656	
3578.5	0.286865	
3579	0.286865	
3579.5	0.28717	
3580	0.286865	
3580.5	0.286865	
3581	0.286865	
3581.5	0.28717	
3582	0.286255	
3582.5	0.286865	
3583	0.28717	
3583.5	0.286255	
3584	0.28656	
3584.5	0.287476	
3585	0.287476	
3585.5	0.28656	
3586	0.286255	
3586.5	0.28717	
3587	0.286255	
3587.5	0.286865	
3588	0.286865	
3588.5	0.286255	
3589	0.286255	
3589.5	0.28656	
