Untitled1.acq
Graph Created on: 2025-02-21 11:01:03.020
Recording on: 2025-02-21 11:50:29.300
0.5 msec/sample
1 channels
PPG, X, PPGED-R
Volts
milliSec	CH1	
	128016 samples	
0	0.0125122	
0.5	0.0100708	
1	0.00762939	
1.5	0.00793457	
2	0.00762939	
2.5	0.00701904	
3	0.00762939	
3.5	0.00732422	
4	0.00671387	
4.5	0.00701904	
5	0.00701904	
5.5	0.00579834	
6	0.00335693	
6.5	0.00274658	
7	0.00244141	
7.5	0.00305176	
8	0.00244141	
8.5	0.00305176	
9	0.00213623	
9.5	0.00213623	
10	0.00274658	
10.5	0.000305176	
11	-0.00213623	
11.5	-0.00244141	
12	-0.00213623	
12.5	-0.00274658	
13	-0.00274658	
13.5	-0.00244141	
14	-0.00274658	
14.5	-0.00213623	
15	-0.00244141	
15.5	-0.00427246	
16	-0.00671387	
16.5	-0.00701904	
17	-0.00671387	
17.5	-0.00732422	
18	-0.00793457	
18.5	-0.00671387	
19	-0.00732422	
19.5	-0.00701904	
20	-0.00701904	
20.5	-0.00976563	
21	-0.0119019	
21.5	-0.012207	
22	-0.012207	
22.5	-0.0128174	
23	-0.0119019	
23.5	-0.0119019	
24	-0.0125122	
24.5	-0.0125122	
25	-0.0125122	
25.5	-0.0115967	
26	-0.0143433	
26.5	-0.0167847	
27	-0.0164795	
27.5	-0.0167847	
28	-0.017395	
28.5	-0.017395	
29	-0.0177002	
29.5	-0.0167847	
30	-0.0170898	
30.5	-0.0177002	
31	-0.0167847	
31.5	-0.0189209	
32	-0.020752	
32.5	-0.0216675	
33	-0.0219727	
33.5	-0.0219727	
34	-0.0216675	
34.5	-0.0222778	
35	-0.0219727	
35.5	-0.0228882	
36	-0.022583	
36.5	-0.0216675	
37	-0.0231934	
37.5	-0.0265503	
38	-0.0271606	
38.5	-0.0271606	
39	-0.0268555	
39.5	-0.0268555	
40	-0.0268555	
40.5	-0.0265503	
41	-0.0265503	
41.5	-0.0268555	
42	-0.0271606	
42.5	-0.0286865	
43	-0.0308228	
43.5	-0.0314331	
44	-0.0314331	
44.5	-0.0317383	
45	-0.0314331	
45.5	-0.0314331	
46	-0.0314331	
46.5	-0.0317383	
47	-0.0317383	
47.5	-0.0311279	
48	-0.0314331	
48.5	-0.0335693	
49	-0.0360107	
49.5	-0.0363159	
50	-0.0366211	
50.5	-0.0375366	
51	-0.0363159	
51.5	-0.0366211	
52	-0.0363159	
52.5	-0.0369263	
53	-0.0369263	
53.5	-0.0366211	
54	-0.0363159	
54.5	-0.0369263	
55	-0.0375366	
55.5	-0.039978	
56	-0.0415039	
56.5	-0.0411987	
57	-0.0411987	
57.5	-0.0415039	
58	-0.0415039	
58.5	-0.0418091	
59	-0.0415039	
59.5	-0.0415039	
60	-0.0411987	
60.5	-0.0415039	
61	-0.0418091	
61.5	-0.0424194	
62	-0.0454712	
62.5	-0.0463867	
63	-0.0463867	
63.5	-0.0466919	
64	-0.0463867	
64.5	-0.0466919	
65	-0.0463867	
65.5	-0.0463867	
66	-0.0463867	
66.5	-0.0466919	
67	-0.0463867	
67.5	-0.0463867	
68	-0.0476074	
68.5	-0.050354	
69	-0.0509644	
69.5	-0.0518799	
70	-0.0512695	
70.5	-0.0512695	
71	-0.0512695	
71.5	-0.0512695	
72	-0.0512695	
72.5	-0.0509644	
73	-0.0509644	
73.5	-0.0515747	
74	-0.0518799	
74.5	-0.0521851	
75	-0.0527954	
75.5	-0.0546265	
76	-0.0561523	
76.5	-0.0561523	
77	-0.0561523	
77.5	-0.0561523	
78	-0.0564575	
78.5	-0.0567627	
79	-0.0561523	
79.5	-0.0564575	
80	-0.0564575	
80.5	-0.0558472	
81	-0.0564575	
81.5	-0.057373	
82	-0.0595093	
82.5	-0.0604248	
83	-0.0616455	
83.5	-0.0613403	
84	-0.0610352	
84.5	-0.0613403	
85	-0.0616455	
85.5	-0.0610352	
86	-0.0610352	
86.5	-0.0616455	
87	-0.06073	
87.5	-0.0610352	
88	-0.0619507	
88.5	-0.0616455	
89	-0.0650024	
89.5	-0.065918	
90	-0.0662231	
90.5	-0.0656128	
91	-0.065918	
91.5	-0.0665283	
92	-0.0665283	
92.5	-0.0656128	
93	-0.0662231	
93.5	-0.0662231	
94	-0.065918	
94.5	-0.0665283	
95	-0.0665283	
95.5	-0.0665283	
96	-0.0692749	
96.5	-0.0708008	
97	-0.0708008	
97.5	-0.071106	
98	-0.0708008	
98.5	-0.0714111	
99	-0.071106	
99.5	-0.071106	
100	-0.0714111	
100.5	-0.071106	
101	-0.071106	
101.5	-0.0708008	
102	-0.0708008	
102.5	-0.071106	
103	-0.071106	
103.5	-0.0738525	
104	-0.0756836	
104.5	-0.0762939	
105	-0.0765991	
105.5	-0.0759888	
106	-0.0759888	
106.5	-0.0756836	
107	-0.0765991	
107.5	-0.0765991	
108	-0.0762939	
108.5	-0.0759888	
109	-0.0762939	
109.5	-0.0759888	
110	-0.0759888	
110.5	-0.0756836	
111	-0.078125	
111.5	-0.0805664	
112	-0.0799561	
112.5	-0.0805664	
113	-0.0808716	
113.5	-0.0811768	
114	-0.0805664	
114.5	-0.0808716	
115	-0.0808716	
115.5	-0.0808716	
116	-0.0802612	
116.5	-0.0808716	
117	-0.0808716	
117.5	-0.0814819	
118	-0.0805664	
118.5	-0.083313	
119	-0.0854492	
119.5	-0.0854492	
120	-0.0863647	
120.5	-0.0857544	
121	-0.0857544	
121.5	-0.0860596	
122	-0.0866699	
122.5	-0.0854492	
123	-0.0860596	
123.5	-0.0857544	
124	-0.0857544	
124.5	-0.0866699	
125	-0.0857544	
125.5	-0.0857544	
126	-0.0881958	
126.5	-0.0900269	
127	-0.0906372	
127.5	-0.090332	
128	-0.090332	
128.5	-0.0906372	
129	-0.090332	
129.5	-0.0900269	
130	-0.090332	
130.5	-0.0906372	
131	-0.0900269	
131.5	-0.090332	
132	-0.090332	
132.5	-0.0900269	
133	-0.0906372	
133.5	-0.090332	
134	-0.0924683	
134.5	-0.0949097	
135	-0.0952148	
135.5	-0.09552	
136	-0.0952148	
136.5	-0.0952148	
137	-0.0958252	
137.5	-0.09552	
138	-0.0952148	
138.5	-0.09552	
139	-0.09552	
139.5	-0.09552	
140	-0.0952148	
140.5	-0.09552	
141	-0.0952148	
141.5	-0.0952148	
142	-0.0973511	
142.5	-0.0985718	
143	-0.0997925	
143.5	-0.100098	
144	-0.100403	
144.5	-0.100403	
145	-0.0997925	
145.5	-0.100098	
146	-0.100403	
146.5	-0.100098	
147	-0.100098	
147.5	-0.100403	
148	-0.100403	
148.5	-0.100098	
149	-0.0997925	
149.5	-0.100098	
150	-0.100403	
150.5	-0.102234	
151	-0.104675	
151.5	-0.104675	
152	-0.104675	
152.5	-0.105896	
153	-0.104675	
153.5	-0.10498	
154	-0.105286	
154.5	-0.10498	
155	-0.10437	
155.5	-0.10437	
156	-0.10498	
156.5	-0.105286	
157	-0.104675	
157.5	-0.10498	
158	-0.105286	
158.5	-0.105591	
159	-0.10498	
159.5	-0.106812	
160	-0.109863	
160.5	-0.110168	
161	-0.110168	
161.5	-0.109558	
162	-0.110474	
162.5	-0.110474	
163	-0.110474	
163.5	-0.110168	
164	-0.110168	
164.5	-0.110474	
165	-0.110168	
165.5	-0.110168	
166	-0.109558	
166.5	-0.109863	
167	-0.110168	
167.5	-0.110474	
168	-0.110168	
168.5	-0.111694	
169	-0.113831	
169.5	-0.114746	
170	-0.115051	
170.5	-0.114746	
171	-0.114746	
171.5	-0.114746	
172	-0.114746	
172.5	-0.115662	
173	-0.115051	
173.5	-0.115051	
174	-0.115051	
174.5	-0.115051	
175	-0.115051	
175.5	-0.115356	
176	-0.114746	
176.5	-0.115051	
177	-0.115356	
177.5	-0.114441	
178	-0.115051	
178.5	-0.115967	
179	-0.118408	
179.5	-0.120239	
180	-0.120239	
180.5	-0.119934	
181	-0.119934	
181.5	-0.120544	
182	-0.12085	
182.5	-0.119629	
183	-0.119934	
183.5	-0.119934	
184	-0.119934	
184.5	-0.119934	
185	-0.119934	
185.5	-0.119934	
186	-0.120239	
186.5	-0.119934	
187	-0.119629	
187.5	-0.120544	
188	-0.119324	
188.5	-0.12085	
189	-0.123901	
189.5	-0.124817	
190	-0.124512	
190.5	-0.124817	
191	-0.124512	
191.5	-0.125122	
192	-0.125122	
192.5	-0.125122	
193	-0.124817	
193.5	-0.124817	
194	-0.125122	
194.5	-0.125122	
195	-0.125122	
195.5	-0.124512	
196	-0.124512	
196.5	-0.125122	
197	-0.125122	
197.5	-0.125122	
198	-0.124207	
198.5	-0.124817	
199	-0.125732	
199.5	-0.125732	
200	-0.125122	
200.5	-0.127869	
201	-0.130005	
201.5	-0.1297	
202	-0.130005	
202.5	-0.1297	
203	-0.130005	
203.5	-0.129395	
204	-0.130005	
204.5	-0.1297	
205	-0.130005	
205.5	-0.1297	
206	-0.13031	
206.5	-0.130005	
207	-0.1297	
207.5	-0.13031	
208	-0.129395	
208.5	-0.130005	
209	-0.130005	
209.5	-0.1297	
210	-0.129395	
210.5	-0.130005	
211	-0.1297	
211.5	-0.130005	
212	-0.1297	
212.5	-0.13031	
213	-0.1297	
213.5	-0.130005	
214	-0.1297	
214.5	-0.130615	
215	-0.1297	
215.5	-0.129395	
216	-0.1297	
216.5	-0.130005	
217	-0.130005	
217.5	-0.1297	
218	-0.13031	
218.5	-0.133362	
219	-0.134277	
219.5	-0.134277	
220	-0.134583	
220.5	-0.134888	
221	-0.134583	
221.5	-0.135193	
222	-0.134888	
222.5	-0.135498	
223	-0.134583	
223.5	-0.134583	
224	-0.134277	
224.5	-0.134888	
225	-0.134583	
225.5	-0.134888	
226	-0.134888	
226.5	-0.135193	
227	-0.134888	
227.5	-0.135803	
228	-0.134583	
228.5	-0.134277	
229	-0.134583	
229.5	-0.134583	
230	-0.132141	
230.5	-0.130005	
231	-0.13031	
231.5	-0.129089	
232	-0.130005	
232.5	-0.130005	
233	-0.129395	
233.5	-0.13031	
234	-0.129395	
234.5	-0.13031	
235	-0.130005	
235.5	-0.130005	
236	-0.128784	
236.5	-0.130005	
237	-0.129395	
237.5	-0.130005	
238	-0.1297	
238.5	-0.13031	
239	-0.129089	
239.5	-0.1297	
240	-0.129395	
240.5	-0.130005	
241	-0.130005	
241.5	-0.13031	
242	-0.1297	
242.5	-0.130005	
243	-0.130005	
243.5	-0.127258	
244	-0.126343	
244.5	-0.124512	
245	-0.124817	
245.5	-0.124817	
246	-0.124817	
246.5	-0.124817	
247	-0.125732	
247.5	-0.124512	
248	-0.125427	
248.5	-0.124817	
249	-0.125427	
249.5	-0.124817	
250	-0.122375	
250.5	-0.12085	
251	-0.120239	
251.5	-0.120544	
252	-0.119629	
252.5	-0.119019	
253	-0.119934	
253.5	-0.119934	
254	-0.119934	
254.5	-0.117493	
255	-0.115967	
255.5	-0.115356	
256	-0.115051	
256.5	-0.115051	
257	-0.115051	
257.5	-0.115662	
258	-0.112915	
258.5	-0.111389	
259	-0.109558	
259.5	-0.110168	
260	-0.110168	
260.5	-0.110474	
261	-0.107727	
261.5	-0.105286	
262	-0.105286	
262.5	-0.105286	
263	-0.10498	
263.5	-0.102539	
264	-0.101318	
264.5	-0.0997925	
265	-0.100098	
265.5	-0.100098	
266	-0.0985718	
266.5	-0.0964355	
267	-0.09552	
267.5	-0.0952148	
268	-0.0952148	
268.5	-0.0933838	
269	-0.0909424	
269.5	-0.090332	
270	-0.090332	
270.5	-0.088501	
271	-0.0866699	
271.5	-0.0863647	
272	-0.0857544	
272.5	-0.083313	
273	-0.0814819	
273.5	-0.0805664	
274	-0.0808716	
274.5	-0.0793457	
275	-0.0769043	
275.5	-0.0756836	
276	-0.0738525	
276.5	-0.0726318	
277	-0.071106	
277.5	-0.0695801	
278	-0.0668335	
278.5	-0.0665283	
279	-0.0665283	
279.5	-0.0643921	
280	-0.0619507	
280.5	-0.0616455	
281	-0.0592041	
281.5	-0.057373	
282	-0.0564575	
282.5	-0.0549316	
283	-0.0518799	
283.5	-0.0512695	
284	-0.0491333	
284.5	-0.0476074	
285	-0.0466919	
285.5	-0.0448608	
286	-0.0421143	
286.5	-0.0408936	
287	-0.0375366	
287.5	-0.0372314	
288	-0.0338745	
288.5	-0.0332642	
289	-0.0320435	
289.5	-0.0299072	
290	-0.0271606	
290.5	-0.0253296	
291	-0.022583	
291.5	-0.0222778	
292	-0.0198364	
292.5	-0.0180054	
293	-0.0164795	
293.5	-0.0131226	
294	-0.012207	
294.5	-0.0109863	
295	-0.00854492	
295.5	-0.00610352	
296	-0.00366211	
296.5	-0.00244141	
297	-0.000915527	
297.5	0.0012207	
298	0.00335693	
298.5	0.00640869	
299	0.00823975	
299.5	0.0112915	
300	0.012207	
300.5	0.0137329	
301	0.0158691	
301.5	0.0183105	
302	0.0204468	
302.5	0.0231934	
303	0.0262451	
303.5	0.0283813	
304	0.0308228	
304.5	0.0317383	
305	0.0332642	
305.5	0.0360107	
306	0.0378418	
306.5	0.0405884	
307	0.0427246	
307.5	0.045166	
308	0.0473022	
308.5	0.0506592	
309	0.0518799	
309.5	0.0531006	
310	0.055542	
310.5	0.057373	
311	0.06073	
311.5	0.0619507	
312	0.0653076	
312.5	0.0671387	
313	0.0692749	
313.5	0.071106	
314	0.0723267	
314.5	0.0750732	
315	0.0772095	
315.5	0.0793457	
316	0.0808716	
316.5	0.0839233	
317	0.0860596	
317.5	0.090332	
318	0.0900269	
318.5	0.0909424	
319	0.0942993	
319.5	0.0949097	
320	0.098877	
320.5	0.100708	
321	0.104065	
321.5	0.105591	
322	0.108643	
322.5	0.109558	
323	0.111389	
323.5	0.11322	
324	0.114441	
324.5	0.118408	
325	0.119324	
325.5	0.120239	
326	0.123291	
326.5	0.125122	
327	0.128784	
327.5	0.1297	
328	0.133057	
328.5	0.133972	
329	0.135193	
329.5	0.137939	
330	0.139771	
330.5	0.143127	
331	0.144348	
331.5	0.145264	
332	0.1474	
332.5	0.149536	
333	0.153503	
333.5	0.154114	
334	0.154724	
334.5	0.157776	
335	0.158691	
335.5	0.159302	
336	0.162659	
336.5	0.164185	
337	0.167542	
337.5	0.168762	
338	0.169678	
338.5	0.172729	
339	0.17334	
339.5	0.174866	
340	0.177612	
340.5	0.178833	
341	0.179138	
341.5	0.181885	
342	0.1828	
342.5	0.183105	
343	0.187073	
343.5	0.188293	
344	0.188599	
344.5	0.191345	
345	0.192871	
345.5	0.193787	
346	0.197144	
346.5	0.198975	
347	0.198364	
347.5	0.202026	
348	0.203247	
348.5	0.203857	
349	0.206604	
349.5	0.209045	
350	0.20813	
350.5	0.209045	
351	0.212097	
351.5	0.212708	
352	0.213623	
352.5	0.21637	
353	0.217896	
353.5	0.218506	
354	0.218201	
354.5	0.221863	
355	0.223389	
355.5	0.223083	
356	0.223389	
356.5	0.22644	
357	0.227051	
357.5	0.227661	
358	0.228882	
358.5	0.230713	
359	0.231934	
359.5	0.232544	
360	0.232849	
360.5	0.236206	
361	0.236511	
361.5	0.237427	
362	0.237732	
362.5	0.237427	
363	0.239868	
363.5	0.242004	
364	0.242004	
364.5	0.24231	
365	0.243225	
365.5	0.245361	
366	0.246582	
366.5	0.246582	
367	0.247498	
367.5	0.247498	
368	0.250244	
368.5	0.251465	
369	0.25238	
369.5	0.25177	
370	0.252686	
370.5	0.25238	
371	0.255127	
371.5	0.256958	
372	0.256653	
372.5	0.258179	
373	0.256653	
373.5	0.257568	
374	0.257263	
374.5	0.26062	
375	0.26123	
375.5	0.262451	
376	0.261841	
376.5	0.262146	
377	0.261841	
377.5	0.262146	
378	0.262146	
378.5	0.264893	
379	0.266724	
379.5	0.267334	
380	0.267029	
380.5	0.267029	
381	0.267334	
381.5	0.267334	
382	0.266418	
382.5	0.267334	
383	0.267029	
383.5	0.26947	
384	0.271606	
384.5	0.272217	
385	0.272217	
385.5	0.272217	
386	0.272217	
386.5	0.272217	
387	0.272217	
387.5	0.271912	
388	0.271912	
388.5	0.271912	
389	0.272217	
389.5	0.271912	
390	0.271912	
390.5	0.272217	
391	0.274658	
391.5	0.276184	
392	0.276794	
392.5	0.276794	
393	0.276794	
393.5	0.2771	
394	0.276489	
394.5	0.276489	
395	0.276794	
395.5	0.2771	
396	0.2771	
396.5	0.276794	
397	0.276794	
397.5	0.2771	
398	0.2771	
398.5	0.276794	
399	0.2771	
399.5	0.276489	
400	0.276794	
400.5	0.276794	
401	0.276794	
401.5	0.2771	
402	0.276489	
402.5	0.276794	
403	0.276794	
403.5	0.2771	
404	0.276794	
404.5	0.276794	
405	0.2771	
405.5	0.276794	
406	0.277405	
406.5	0.277405	
407	0.276489	
407.5	0.277405	
408	0.276794	
408.5	0.2771	
409	0.276794	
409.5	0.276794	
410	0.2771	
410.5	0.2771	
411	0.276489	
411.5	0.277405	
412	0.2771	
412.5	0.276489	
413	0.276794	
413.5	0.2771	
414	0.2771	
414.5	0.276489	
415	0.276794	
415.5	0.277405	
416	0.2771	
416.5	0.276184	
417	0.276489	
417.5	0.276489	
418	0.276794	
418.5	0.276794	
419	0.2771	
419.5	0.277405	
420	0.275574	
420.5	0.272827	
421	0.271912	
421.5	0.272217	
422	0.272827	
422.5	0.271912	
423	0.271912	
423.5	0.272217	
424	0.272522	
424.5	0.271912	
425	0.272217	
425.5	0.271912	
426	0.271912	
426.5	0.272522	
427	0.272217	
427.5	0.271912	
428	0.271912	
428.5	0.271912	
429	0.272217	
429.5	0.271606	
430	0.271912	
430.5	0.271606	
431	0.270996	
431.5	0.26825	
432	0.266724	
432.5	0.267029	
433	0.267334	
433.5	0.267334	
434	0.267334	
434.5	0.267639	
435	0.267334	
435.5	0.267639	
436	0.266724	
436.5	0.267029	
437	0.266418	
437.5	0.267029	
438	0.267334	
438.5	0.267029	
439	0.265808	
439.5	0.263977	
440	0.262451	
440.5	0.262146	
441	0.262756	
441.5	0.262451	
442	0.263062	
442.5	0.262146	
443	0.262146	
443.5	0.262451	
444	0.262451	
444.5	0.262146	
445	0.262451	
445.5	0.26123	
446	0.258789	
446.5	0.256958	
447	0.257263	
447.5	0.257263	
448	0.257263	
448.5	0.256958	
449	0.257568	
449.5	0.257263	
450	0.257263	
450.5	0.256653	
451	0.256958	
451.5	0.252991	
452	0.252075	
452.5	0.252686	
453	0.252686	
453.5	0.252686	
454	0.25238	
454.5	0.25238	
455	0.252686	
455.5	0.252075	
456	0.25177	
456.5	0.248718	
457	0.247803	
457.5	0.247803	
458	0.247192	
458.5	0.247803	
459	0.247803	
459.5	0.248108	
460	0.247803	
460.5	0.247498	
461	0.244446	
461.5	0.243225	
462	0.242004	
462.5	0.242615	
463	0.242004	
463.5	0.24292	
464	0.24231	
464.5	0.24231	
465	0.238647	
465.5	0.238037	
466	0.236816	
466.5	0.238037	
467	0.238037	
467.5	0.237427	
468	0.237732	
468.5	0.237427	
469	0.23468	
469.5	0.233459	
470	0.233154	
470.5	0.232849	
471	0.232544	
471.5	0.233154	
472	0.231934	
472.5	0.232544	
473	0.229797	
473.5	0.229187	
474	0.228271	
474.5	0.227966	
475	0.227966	
475.5	0.227966	
476	0.227356	
476.5	0.224609	
477	0.223694	
477.5	0.223083	
478	0.222778	
478.5	0.223694	
479	0.222778	
479.5	0.222473	
480	0.220337	
480.5	0.218506	
481	0.218506	
481.5	0.217896	
482	0.218201	
482.5	0.218201	
483	0.215149	
483.5	0.214233	
484	0.213013	
484.5	0.212708	
485	0.213318	
485.5	0.212708	
486	0.213318	
486.5	0.210571	
487	0.20874	
487.5	0.208435	
488	0.209045	
488.5	0.20813	
489	0.20874	
489.5	0.205078	
490	0.203857	
490.5	0.203552	
491	0.203247	
491.5	0.203552	
492	0.203247	
492.5	0.201111	
493	0.198975	
493.5	0.198364	
494	0.198669	
494.5	0.198669	
495	0.195923	
495.5	0.193787	
496	0.193481	
496.5	0.193176	
497	0.194397	
497.5	0.193787	
498	0.190735	
498.5	0.189514	
499	0.188904	
499.5	0.188599	
500	0.188599	
500.5	0.188904	
501	0.185852	
501.5	0.184631	
502	0.183105	
502.5	0.183716	
503	0.183716	
503.5	0.180969	
504	0.179749	
504.5	0.178833	
505	0.178223	
505.5	0.178833	
506	0.178833	
506.5	0.175476	
507	0.174561	
507.5	0.174255	
508	0.173645	
508.5	0.173645	
509	0.171814	
509.5	0.169983	
510	0.168762	
510.5	0.168457	
511	0.169373	
511.5	0.169067	
512	0.166931	
512.5	0.16449	
513	0.16449	
513.5	0.163879	
514	0.164185	
514.5	0.161743	
515	0.160217	
515.5	0.159302	
516	0.158997	
516.5	0.159302	
517	0.156555	
517.5	0.154724	
518	0.154419	
518.5	0.153809	
519	0.154114	
519.5	0.153809	
520	0.152588	
520.5	0.149841	
521	0.149536	
521.5	0.149231	
522	0.148926	
522.5	0.1474	
523	0.145569	
523.5	0.144348	
524	0.144958	
524.5	0.144653	
525	0.144348	
525.5	0.142212	
526	0.140076	
526.5	0.140076	
527	0.138855	
527.5	0.13916	
528	0.137634	
528.5	0.135193	
529	0.134277	
529.5	0.134583	
530	0.134277	
530.5	0.134277	
531	0.132751	
531.5	0.130005	
532	0.13031	
532.5	0.130005	
533	0.129395	
533.5	0.127258	
534	0.125427	
534.5	0.124817	
535	0.125427	
535.5	0.124207	
536	0.124207	
536.5	0.122375	
537	0.12085	
537.5	0.120239	
538	0.119934	
538.5	0.119629	
539	0.119629	
539.5	0.118713	
540	0.115356	
540.5	0.115051	
541	0.115051	
541.5	0.115356	
542	0.114746	
542.5	0.112915	
543	0.110779	
543.5	0.109863	
544	0.109558	
544.5	0.110168	
545	0.110168	
545.5	0.108948	
546	0.106201	
546.5	0.105591	
547	0.105286	
547.5	0.105286	
548	0.105286	
548.5	0.10376	
549	0.101013	
549.5	0.100708	
550	0.100403	
550.5	0.101013	
551	0.100403	
551.5	0.100098	
552	0.0985718	
552.5	0.0964355	
553	0.0958252	
553.5	0.0958252	
554	0.09552	
554.5	0.0952148	
555	0.0952148	
555.5	0.093689	
556	0.0915527	
556.5	0.090332	
557	0.0909424	
557.5	0.0897217	
558	0.0900269	
558.5	0.0900269	
559	0.0894165	
559.5	0.0872803	
560	0.0860596	
560.5	0.0854492	
561	0.0857544	
561.5	0.0857544	
562	0.085144	
562.5	0.0845337	
563	0.0817871	
563.5	0.0805664	
564	0.0805664	
564.5	0.0808716	
565	0.0805664	
565.5	0.0805664	
566	0.0805664	
566.5	0.0802612	
567	0.0796509	
567.5	0.0772095	
568	0.0759888	
568.5	0.0759888	
569	0.0765991	
569.5	0.0759888	
570	0.0762939	
570.5	0.0759888	
571	0.0753784	
571.5	0.072937	
572	0.071106	
572.5	0.071106	
573	0.0704956	
573.5	0.0714111	
574	0.0708008	
574.5	0.071106	
575	0.0708008	
575.5	0.0717163	
576	0.0714111	
576.5	0.0674438	
577	0.0662231	
577.5	0.065918	
578	0.0665283	
578.5	0.0665283	
579	0.0662231	
579.5	0.0665283	
580	0.0662231	
580.5	0.0665283	
581	0.0656128	
581.5	0.0622559	
582	0.0622559	
582.5	0.0619507	
583	0.0613403	
583.5	0.0616455	
584	0.0610352	
584.5	0.0613403	
585	0.0622559	
585.5	0.0616455	
586	0.0619507	
586.5	0.0616455	
587	0.0616455	
587.5	0.0588989	
588	0.0567627	
588.5	0.0567627	
589	0.0561523	
589.5	0.0567627	
590	0.0564575	
590.5	0.0564575	
591	0.0558472	
591.5	0.0564575	
592	0.0564575	
592.5	0.0567627	
593	0.0570679	
593.5	0.0534058	
594	0.0527954	
594.5	0.0518799	
595	0.0509644	
595.5	0.0518799	
596	0.0518799	
596.5	0.0515747	
597	0.0515747	
597.5	0.0515747	
598	0.0518799	
598.5	0.0515747	
599	0.0512695	
599.5	0.0515747	
600	0.0482178	
600.5	0.0473022	
601	0.0466919	
601.5	0.0463867	
602	0.0469971	
602.5	0.0466919	
603	0.0466919	
603.5	0.0466919	
604	0.0463867	
604.5	0.0460815	
605	0.0469971	
605.5	0.0469971	
606	0.0469971	
606.5	0.0439453	
607	0.0427246	
607.5	0.0418091	
608	0.0421143	
608.5	0.0424194	
609	0.0418091	
609.5	0.0421143	
610	0.0411987	
610.5	0.0424194	
611	0.0418091	
611.5	0.0418091	
612	0.0408936	
612.5	0.0418091	
613	0.0390625	
613.5	0.0369263	
614	0.0372314	
614.5	0.0369263	
615	0.0366211	
615.5	0.0372314	
616	0.0369263	
616.5	0.0375366	
617	0.0369263	
617.5	0.0375366	
618	0.0369263	
618.5	0.0366211	
619	0.0369263	
619.5	0.0344849	
620	0.0323486	
620.5	0.0320435	
621	0.0323486	
621.5	0.0323486	
622	0.0320435	
622.5	0.0320435	
623	0.0317383	
623.5	0.0314331	
624	0.0320435	
624.5	0.0323486	
625	0.0320435	
625.5	0.0314331	
626	0.0296021	
626.5	0.0271606	
627	0.0274658	
627.5	0.0274658	
628	0.0268555	
628.5	0.0271606	
629	0.0268555	
629.5	0.0280762	
630	0.0274658	
630.5	0.0268555	
631	0.0274658	
631.5	0.0265503	
632	0.0274658	
632.5	0.0265503	
633	0.0244141	
633.5	0.0222778	
634	0.0222778	
634.5	0.0219727	
635	0.022583	
635.5	0.0219727	
636	0.0216675	
636.5	0.0222778	
637	0.0219727	
637.5	0.0222778	
638	0.0216675	
638.5	0.022583	
639	0.0222778	
639.5	0.0222778	
640	0.0198364	
640.5	0.0177002	
641	0.0170898	
641.5	0.0170898	
642	0.017395	
642.5	0.0177002	
643	0.0170898	
643.5	0.0170898	
644	0.0177002	
644.5	0.017395	
645	0.0164795	
645.5	0.0177002	
646	0.0170898	
646.5	0.015564	
647	0.0134277	
647.5	0.012207	
648	0.0119019	
648.5	0.012207	
649	0.0119019	
649.5	0.012207	
650	0.0119019	
650.5	0.0128174	
651	0.0125122	
651.5	0.012207	
652	0.012207	
652.5	0.0119019	
653	0.0128174	
653.5	0.00976563	
654	0.00823975	
654.5	0.00701904	
655	0.00793457	
655.5	0.00793457	
656	0.00762939	
656.5	0.00762939	
657	0.00762939	
657.5	0.00762939	
658	0.00732422	
658.5	0.00793457	
659	0.00701904	
659.5	0.00762939	
660	0.00671387	
660.5	0.00335693	
661	0.00244141	
661.5	0.00213623	
662	0.00274658	
662.5	0.00305176	
663	0.00213623	
663.5	0.00183105	
664	0.00274658	
664.5	0.00305176	
665	0.00213623	
665.5	0.00244141	
666	0.00274658	
666.5	0.00213623	
667	0.0012207	
667.5	-0.00183105	
668	-0.00183105	
668.5	-0.00213623	
669	-0.00213623	
669.5	-0.00213623	
670	-0.00274658	
670.5	-0.00244141	
671	-0.00244141	
671.5	-0.00274658	
672	-0.00244141	
672.5	-0.0012207	
673	-0.00274658	
673.5	-0.00396729	
674	-0.00610352	
674.5	-0.00701904	
675	-0.00701904	
675.5	-0.00732422	
676	-0.00701904	
676.5	-0.00732422	
677	-0.00701904	
677.5	-0.00793457	
678	-0.00732422	
678.5	-0.00701904	
679	-0.00732422	
679.5	-0.00732422	
680	-0.00732422	
680.5	-0.00854492	
681	-0.0109863	
681.5	-0.0115967	
682	-0.012207	
682.5	-0.0115967	
683	-0.0119019	
683.5	-0.0119019	
684	-0.012207	
684.5	-0.0119019	
685	-0.012207	
685.5	-0.012207	
686	-0.012207	
686.5	-0.0119019	
687	-0.012207	
687.5	-0.0115967	
688	-0.0137329	
688.5	-0.0158691	
689	-0.0167847	
689.5	-0.0167847	
690	-0.0170898	
690.5	-0.017395	
691	-0.0167847	
691.5	-0.0158691	
692	-0.017395	
692.5	-0.0177002	
693	-0.0170898	
693.5	-0.0167847	
694	-0.0167847	
694.5	-0.0170898	
695	-0.0170898	
695.5	-0.0167847	
696	-0.0170898	
696.5	-0.0180054	
697	-0.020752	
697.5	-0.0219727	
698	-0.0219727	
698.5	-0.0222778	
699	-0.0216675	
699.5	-0.0219727	
700	-0.0222778	
700.5	-0.0222778	
701	-0.0216675	
701.5	-0.0222778	
702	-0.0219727	
702.5	-0.0222778	
703	-0.0222778	
703.5	-0.0219727	
704	-0.0216675	
704.5	-0.0216675	
705	-0.0228882	
705.5	-0.0253296	
706	-0.0268555	
706.5	-0.0265503	
707	-0.0271606	
707.5	-0.0265503	
708	-0.0268555	
708.5	-0.0265503	
709	-0.0274658	
709.5	-0.0274658	
710	-0.0268555	
710.5	-0.0271606	
711	-0.0274658	
711.5	-0.0271606	
712	-0.0271606	
712.5	-0.0262451	
713	-0.0268555	
713.5	-0.0271606	
714	-0.0302124	
714.5	-0.0317383	
715	-0.0320435	
715.5	-0.0317383	
716	-0.0320435	
716.5	-0.0314331	
717	-0.0314331	
717.5	-0.0317383	
718	-0.0317383	
718.5	-0.0317383	
719	-0.0314331	
719.5	-0.0314331	
720	-0.0317383	
720.5	-0.0317383	
721	-0.0320435	
721.5	-0.0311279	
722	-0.0317383	
722.5	-0.03479	
723	-0.0369263	
723.5	-0.0363159	
724	-0.0363159	
724.5	-0.0369263	
725	-0.0366211	
725.5	-0.0363159	
726	-0.0366211	
726.5	-0.0369263	
727	-0.0366211	
727.5	-0.0366211	
728	-0.0360107	
728.5	-0.0366211	
729	-0.0372314	
729.5	-0.0372314	
730	-0.0363159	
730.5	-0.0366211	
731	-0.0369263	
731.5	-0.039978	
732	-0.0408936	
732.5	-0.0415039	
733	-0.0411987	
733.5	-0.0411987	
734	-0.0421143	
734.5	-0.0415039	
735	-0.0421143	
735.5	-0.0415039	
736	-0.0411987	
736.5	-0.0421143	
737	-0.0415039	
737.5	-0.0418091	
738	-0.0411987	
738.5	-0.0411987	
739	-0.0418091	
739.5	-0.0415039	
740	-0.0415039	
740.5	-0.0421143	
741	-0.0445557	
741.5	-0.0457764	
742	-0.0466919	
742.5	-0.0469971	
743	-0.0460815	
743.5	-0.0463867	
744	-0.0460815	
744.5	-0.0473022	
745	-0.0463867	
745.5	-0.0463867	
746	-0.0466919	
746.5	-0.0460815	
747	-0.0469971	
747.5	-0.0466919	
748	-0.0473022	
748.5	-0.0463867	
749	-0.0460815	
749.5	-0.0463867	
750	-0.0466919	
750.5	-0.0466919	
751	-0.0466919	
751.5	-0.0485229	
752	-0.0509644	
752.5	-0.0512695	
753	-0.0515747	
753.5	-0.0512695	
754	-0.0506592	
754.5	-0.0512695	
755	-0.0509644	
755.5	-0.0512695	
756	-0.0515747	
756.5	-0.0512695	
757	-0.0512695	
757.5	-0.0512695	
758	-0.0515747	
758.5	-0.0515747	
759	-0.0512695	
759.5	-0.0518799	
760	-0.0509644	
760.5	-0.0512695	
761	-0.0512695	
761.5	-0.0512695	
762	-0.0509644	
762.5	-0.0509644	
763	-0.0534058	
763.5	-0.055542	
764	-0.0564575	
764.5	-0.0561523	
765	-0.055542	
765.5	-0.0564575	
766	-0.0564575	
766.5	-0.0564575	
767	-0.0561523	
767.5	-0.0561523	
768	-0.0570679	
768.5	-0.0561523	
769	-0.0561523	
769.5	-0.0564575	
770	-0.0561523	
770.5	-0.0564575	
771	-0.0561523	
771.5	-0.0561523	
772	-0.0558472	
772.5	-0.0558472	
773	-0.0564575	
773.5	-0.057373	
774	-0.0564575	
774.5	-0.0579834	
775	-0.0604248	
775.5	-0.06073	
776	-0.0613403	
776.5	-0.0610352	
777	-0.06073	
777.5	-0.0610352	
778	-0.0610352	
778.5	-0.0610352	
779	-0.06073	
779.5	-0.0613403	
780	-0.0613403	
780.5	-0.0613403	
781	-0.0610352	
781.5	-0.0610352	
782	-0.0613403	
782.5	-0.06073	
783	-0.0616455	
783.5	-0.0613403	
784	-0.0613403	
784.5	-0.06073	
785	-0.06073	
785.5	-0.0628662	
786	-0.0650024	
786.5	-0.065918	
787	-0.0656128	
787.5	-0.0662231	
788	-0.065918	
788.5	-0.065918	
789	-0.0656128	
789.5	-0.0665283	
790	-0.065918	
790.5	-0.0665283	
791	-0.0656128	
791.5	-0.0665283	
792	-0.0665283	
792.5	-0.0662231	
793	-0.0662231	
793.5	-0.0665283	
794	-0.065918	
794.5	-0.0662231	
795	-0.065918	
795.5	-0.0662231	
796	-0.0656128	
796.5	-0.0680542	
797	-0.0701904	
797.5	-0.071106	
798	-0.0714111	
798.5	-0.0704956	
799	-0.0708008	
799.5	-0.0708008	
800	-0.071106	
800.5	-0.0708008	
801	-0.0708008	
801.5	-0.0717163	
802	-0.0714111	
802.5	-0.0717163	
803	-0.0714111	
803.5	-0.0714111	
804	-0.071106	
804.5	-0.0704956	
805	-0.0708008	
805.5	-0.0717163	
806	-0.0708008	
806.5	-0.0708008	
807	-0.0726318	
807.5	-0.0756836	
808	-0.0753784	
808.5	-0.0765991	
809	-0.0762939	
809.5	-0.0756836	
810	-0.0765991	
810.5	-0.0759888	
811	-0.0756836	
811.5	-0.0756836	
812	-0.0753784	
812.5	-0.0759888	
813	-0.0765991	
813.5	-0.0756836	
814	-0.0762939	
814.5	-0.0762939	
815	-0.0759888	
815.5	-0.0762939	
816	-0.0765991	
816.5	-0.0759888	
817	-0.0753784	
817.5	-0.0765991	
818	-0.0802612	
818.5	-0.0808716	
819	-0.0805664	
819.5	-0.0799561	
820	-0.0805664	
820.5	-0.0802612	
821	-0.0808716	
821.5	-0.0805664	
822	-0.0811768	
822.5	-0.0805664	
823	-0.0805664	
823.5	-0.0808716	
824	-0.0805664	
824.5	-0.0808716	
825	-0.0808716	
825.5	-0.0808716	
826	-0.0802612	
826.5	-0.0805664	
827	-0.0808716	
827.5	-0.0842285	
828	-0.085144	
828.5	-0.0863647	
829	-0.0854492	
829.5	-0.0854492	
830	-0.0854492	
830.5	-0.0854492	
831	-0.0854492	
831.5	-0.0857544	
832	-0.0857544	
832.5	-0.085144	
833	-0.0854492	
833.5	-0.0854492	
834	-0.0854492	
834.5	-0.0848389	
835	-0.0857544	
835.5	-0.085144	
836	-0.0854492	
836.5	-0.0854492	
837	-0.0860596	
837.5	-0.0888062	
838	-0.0900269	
838.5	-0.090332	
839	-0.090332	
839.5	-0.0906372	
840	-0.090332	
840.5	-0.0900269	
841	-0.090332	
841.5	-0.090332	
842	-0.090332	
842.5	-0.090332	
843	-0.090332	
843.5	-0.0909424	
844	-0.0906372	
844.5	-0.0912476	
845	-0.0900269	
845.5	-0.090332	
846	-0.0912476	
846.5	-0.0939941	
847	-0.0958252	
847.5	-0.0958252	
848	-0.09552	
848.5	-0.0952148	
849	-0.0952148	
849.5	-0.0952148	
850	-0.0958252	
850.5	-0.09552	
851	-0.0949097	
851.5	-0.09552	
852	-0.09552	
852.5	-0.0952148	
853	-0.0949097	
853.5	-0.0949097	
854	-0.0958252	
854.5	-0.09552	
855	-0.0952148	
855.5	-0.0952148	
856	-0.0982666	
856.5	-0.100098	
857	-0.100403	
857.5	-0.100403	
858	-0.100403	
858.5	-0.100403	
859	-0.100403	
859.5	-0.0994873	
860	-0.100098	
860.5	-0.100708	
861	-0.100098	
861.5	-0.0994873	
862	-0.100098	
862.5	-0.100708	
863	-0.100708	
863.5	-0.100403	
864	-0.100708	
864.5	-0.100403	
865	-0.0997925	
865.5	-0.103455	
866	-0.104065	
866.5	-0.105286	
867	-0.105286	
867.5	-0.105286	
868	-0.105286	
868.5	-0.105286	
869	-0.10498	
869.5	-0.10498	
870	-0.10498	
870.5	-0.105591	
871	-0.10498	
871.5	-0.105286	
872	-0.105286	
872.5	-0.105286	
873	-0.105286	
873.5	-0.10498	
874	-0.105591	
874.5	-0.105286	
875	-0.108337	
875.5	-0.109253	
876	-0.110168	
876.5	-0.110474	
877	-0.110474	
877.5	-0.110474	
878	-0.110168	
878.5	-0.110474	
879	-0.110474	
879.5	-0.109558	
880	-0.110474	
880.5	-0.109863	
881	-0.110168	
881.5	-0.110779	
882	-0.109558	
882.5	-0.110474	
883	-0.109558	
883.5	-0.110168	
884	-0.110168	
884.5	-0.110474	
885	-0.109863	
885.5	-0.109558	
886	-0.110168	
886.5	-0.112305	
887	-0.114136	
887.5	-0.115662	
888	-0.115051	
888.5	-0.114746	
889	-0.114441	
889.5	-0.114136	
890	-0.115356	
890.5	-0.115356	
891	-0.115051	
891.5	-0.114746	
892	-0.115051	
892.5	-0.115051	
893	-0.114746	
893.5	-0.115051	
894	-0.115051	
894.5	-0.114746	
895	-0.115051	
895.5	-0.115662	
896	-0.114746	
896.5	-0.115051	
897	-0.115051	
897.5	-0.115356	
898	-0.115051	
898.5	-0.115051	
899	-0.115356	
899.5	-0.115356	
900	-0.115051	
900.5	-0.114441	
901	-0.115356	
901.5	-0.115356	
902	-0.115356	
902.5	-0.114746	
903	-0.115051	
903.5	-0.115356	
904	-0.115356	
904.5	-0.115356	
905	-0.115051	
905.5	-0.114746	
906	-0.114746	
906.5	-0.115051	
907	-0.115051	
907.5	-0.114441	
908	-0.115051	
908.5	-0.114746	
909	-0.115051	
909.5	-0.115051	
910	-0.114746	
910.5	-0.115356	
911	-0.114746	
911.5	-0.114746	
912	-0.114136	
912.5	-0.115662	
913	-0.114746	
913.5	-0.115051	
914	-0.115051	
914.5	-0.115356	
915	-0.115356	
915.5	-0.115051	
916	-0.115356	
916.5	-0.114441	
917	-0.115051	
917.5	-0.11322	
918	-0.110779	
918.5	-0.110779	
919	-0.109863	
919.5	-0.110474	
920	-0.110168	
920.5	-0.110474	
921	-0.110474	
921.5	-0.109863	
922	-0.110168	
922.5	-0.110779	
923	-0.110168	
923.5	-0.108337	
924	-0.106201	
924.5	-0.105591	
925	-0.105591	
925.5	-0.105286	
926	-0.10498	
926.5	-0.10437	
927	-0.105591	
927.5	-0.104065	
928	-0.101318	
928.5	-0.100403	
929	-0.100708	
929.5	-0.100403	
930	-0.100708	
930.5	-0.100098	
931	-0.0991821	
931.5	-0.0970459	
932	-0.0958252	
932.5	-0.0958252	
933	-0.0952148	
933.5	-0.0939941	
934	-0.0918579	
934.5	-0.0909424	
935	-0.0906372	
935.5	-0.0909424	
936	-0.0900269	
936.5	-0.0891113	
937	-0.0875854	
937.5	-0.0863647	
938	-0.0860596	
938.5	-0.0842285	
939	-0.0814819	
939.5	-0.0802612	
940	-0.0805664	
940.5	-0.0811768	
941	-0.0799561	
941.5	-0.0769043	
942	-0.0765991	
942.5	-0.0759888	
943	-0.0753784	
943.5	-0.072937	
944	-0.071106	
944.5	-0.0704956	
945	-0.067749	
945.5	-0.0671387	
946	-0.0662231	
946.5	-0.0650024	
947	-0.0622559	
947.5	-0.0610352	
948	-0.06073	
948.5	-0.0570679	
949	-0.0567627	
949.5	-0.0564575	
950	-0.055542	
950.5	-0.0527954	
951	-0.0518799	
951.5	-0.050354	
952	-0.0473022	
952.5	-0.0466919	
953	-0.0457764	
953.5	-0.043335	
954	-0.0421143	
954.5	-0.0408936	
955	-0.0378418	
955.5	-0.0360107	
956	-0.0360107	
956.5	-0.0332642	
957	-0.0320435	
957.5	-0.0311279	
958	-0.0280762	
958.5	-0.0265503	
959	-0.0231934	
959.5	-0.0219727	
960	-0.0216675	
960.5	-0.0183105	
961	-0.0177002	
961.5	-0.0170898	
962	-0.0131226	
962.5	-0.0115967	
963	-0.0088501	
963.5	-0.00762939	
964	-0.00701904	
964.5	-0.00427246	
965	-0.00213623	
965.5	0.0012207	
966	0.00213623	
966.5	0.00213623	
967	0.00610352	
967.5	0.00762939	
968	0.010376	
968.5	0.012207	
969	0.012207	
969.5	0.015564	
970	0.0167847	
970.5	0.0204468	
971	0.022583	
971.5	0.0250244	
972	0.0265503	
972.5	0.0271606	
973	0.0302124	
973.5	0.0314331	
974	0.0357056	
974.5	0.0369263	
975	0.0405884	
975.5	0.0415039	
976	0.0418091	
976.5	0.045166	
977	0.0466919	
977.5	0.0497437	
978	0.0515747	
978.5	0.0549316	
979	0.0558472	
979.5	0.0598145	
980	0.0610352	
980.5	0.0613403	
981	0.0643921	
981.5	0.065918	
982	0.0695801	
982.5	0.0708008	
983	0.0747681	
983.5	0.0759888	
984	0.0796509	
984.5	0.0802612	
985	0.0830078	
985.5	0.085144	
986	0.0854492	
986.5	0.088501	
987	0.0900269	
987.5	0.0930786	
988	0.09552	
988.5	0.0979614	
989	0.0997925	
989.5	0.103149	
990	0.104675	
990.5	0.10437	
991	0.108643	
991.5	0.110474	
992	0.11322	
992.5	0.114136	
993	0.118408	
993.5	0.119629	
994	0.122375	
994.5	0.123901	
995	0.124512	
995.5	0.127258	
996	0.1297	
996.5	0.132141	
997	0.133667	
997.5	0.137024	
998	0.138855	
998.5	0.139465	
999	0.141907	
999.5	0.143738	
1000	0.147095	
1000.5	0.148926	
1001	0.151672	
1001.5	0.154114	
1002	0.154419	
1002.5	0.15686	
1003	0.158081	
1003.5	0.161743	
1004	0.163879	
1004.5	0.164185	
1005	0.166016	
1005.5	0.168152	
1006	0.171814	
1006.5	0.173645	
1007	0.17395	
1007.5	0.176697	
1008	0.178833	
1008.5	0.180664	
1009	0.1828	
1009.5	0.184021	
1010	0.186768	
1010.5	0.187988	
1011	0.188904	
1011.5	0.190735	
1012	0.192871	
1012.5	0.195618	
1013	0.196838	
1013.5	0.198975	
1014	0.200806	
1014.5	0.202637	
1015	0.202942	
1015.5	0.206299	
1016	0.207214	
1016.5	0.208435	
1017	0.211182	
1017.5	0.212402	
1018	0.213013	
1018.5	0.215454	
1019	0.217896	
1019.5	0.217896	
1020	0.220032	
1020.5	0.222168	
1021	0.223083	
1021.5	0.225525	
1022	0.227966	
1022.5	0.227661	
1023	0.229797	
1023.5	0.232544	
1024	0.233154	
1024.5	0.235596	
1025	0.236816	
1025.5	0.237122	
1026	0.237732	
1026.5	0.239563	
1027	0.241699	
1027.5	0.24292	
1028	0.244751	
1028.5	0.246582	
1029	0.246887	
1029.5	0.247192	
1030	0.249023	
1030.5	0.25177	
1031	0.25238	
1031.5	0.252075	
1032	0.254517	
1032.5	0.256348	
1033	0.256348	
1033.5	0.256958	
1034	0.259399	
1034.5	0.260925	
1035	0.261841	
1035.5	0.262451	
1036	0.263672	
1036.5	0.265503	
1037	0.267334	
1037.5	0.267334	
1038	0.266724	
1038.5	0.269165	
1039	0.270996	
1039.5	0.272217	
1040	0.271606	
1040.5	0.273743	
1041	0.275879	
1041.5	0.2771	
1042	0.276489	
1042.5	0.2771	
1043	0.276794	
1043.5	0.278625	
1044	0.280457	
1044.5	0.281982	
1045	0.281677	
1045.5	0.282593	
1046	0.281067	
1046.5	0.282898	
1047	0.285645	
1047.5	0.286255	
1048	0.28717	
1048.5	0.28656	
1049	0.28656	
1049.5	0.288391	
1050	0.290527	
1050.5	0.291748	
1051	0.291748	
1051.5	0.292053	
1052	0.291443	
1052.5	0.291443	
1053	0.292053	
1053.5	0.292969	
1054	0.296021	
1054.5	0.296326	
1055	0.296021	
1055.5	0.296631	
1056	0.296936	
1056.5	0.296936	
1057	0.296326	
1057.5	0.296631	
1058	0.298157	
1058.5	0.299988	
1059	0.301514	
1059.5	0.301819	
1060	0.301514	
1060.5	0.301208	
1061	0.301208	
1061.5	0.301819	
1062	0.301514	
1062.5	0.301208	
1063	0.301819	
1063.5	0.301514	
1064	0.301514	
1064.5	0.302429	
1065	0.304871	
1065.5	0.306091	
1066	0.306702	
1066.5	0.306702	
1067	0.306091	
1067.5	0.306702	
1068	0.306702	
1068.5	0.306396	
1069	0.306702	
1069.5	0.306396	
1070	0.306396	
1070.5	0.306702	
1071	0.306091	
1071.5	0.306091	
1072	0.306396	
1072.5	0.306091	
1073	0.306702	
1073.5	0.306396	
1074	0.306091	
1074.5	0.306702	
1075	0.306091	
1075.5	0.307007	
1076	0.306091	
1076.5	0.306091	
1077	0.307617	
1077.5	0.310364	
1078	0.310974	
1078.5	0.311279	
1079	0.310974	
1079.5	0.310669	
1080	0.311279	
1080.5	0.311279	
1081	0.311584	
1081.5	0.311584	
1082	0.311279	
1082.5	0.311584	
1083	0.310974	
1083.5	0.311584	
1084	0.310974	
1084.5	0.310669	
1085	0.308533	
1085.5	0.306702	
1086	0.307007	
1086.5	0.306702	
1087	0.307007	
1087.5	0.306396	
1088	0.305786	
1088.5	0.306091	
1089	0.306396	
1089.5	0.306396	
1090	0.306702	
1090.5	0.306091	
1091	0.305786	
1091.5	0.306396	
1092	0.306396	
1092.5	0.306091	
1093	0.307007	
1093.5	0.306396	
1094	0.306396	
1094.5	0.306396	
1095	0.306396	
1095.5	0.306702	
1096	0.306396	
1096.5	0.306396	
1097	0.306396	
1097.5	0.306396	
1098	0.306702	
1098.5	0.306702	
1099	0.306091	
1099.5	0.306702	
1100	0.306091	
1100.5	0.302734	
1101	0.301514	
1101.5	0.301208	
1102	0.301819	
1102.5	0.301208	
1103	0.301514	
1103.5	0.301208	
1104	0.301819	
1104.5	0.301208	
1105	0.301514	
1105.5	0.301819	
1106	0.301514	
1106.5	0.301208	
1107	0.301819	
1107.5	0.301514	
1108	0.301208	
1108.5	0.301208	
1109	0.300903	
1109.5	0.299072	
1110	0.297241	
1110.5	0.296326	
1111	0.296631	
1111.5	0.296631	
1112	0.296631	
1112.5	0.296936	
1113	0.296631	
1113.5	0.296936	
1114	0.296631	
1114.5	0.296326	
1115	0.296631	
1115.5	0.296936	
1116	0.293579	
1116.5	0.291748	
1117	0.291748	
1117.5	0.292053	
1118	0.291748	
1118.5	0.291748	
1119	0.291443	
1119.5	0.291138	
1120	0.292358	
1120.5	0.291443	
1121	0.292358	
1121.5	0.289307	
1122	0.28656	
1122.5	0.28656	
1123	0.286865	
1123.5	0.28656	
1124	0.28717	
1124.5	0.286255	
1125	0.286865	
1125.5	0.28656	
1126	0.286865	
1126.5	0.284119	
1127	0.282288	
1127.5	0.281982	
1128	0.281677	
1128.5	0.281982	
1129	0.281677	
1129.5	0.281982	
1130	0.281982	
1130.5	0.279236	
1131	0.2771	
1131.5	0.2771	
1132	0.276794	
1132.5	0.276794	
1133	0.2771	
1133.5	0.276794	
1134	0.276489	
1134.5	0.274353	
1135	0.272827	
1135.5	0.271606	
1136	0.272217	
1136.5	0.272217	
1137	0.271606	
1137.5	0.272522	
1138	0.270081	
1138.5	0.267334	
1139	0.266724	
1139.5	0.267029	
1140	0.267334	
1140.5	0.267334	
1141	0.266724	
1141.5	0.264587	
1142	0.263062	
1142.5	0.262451	
1143	0.262146	
1143.5	0.262451	
1144	0.262146	
1144.5	0.26001	
1145	0.257874	
1145.5	0.258179	
1146	0.256958	
1146.5	0.257568	
1147	0.256653	
1147.5	0.255432	
1148	0.253296	
1148.5	0.252686	
1149	0.25238	
1149.5	0.25238	
1150	0.252991	
1150.5	0.250854	
1151	0.248108	
1151.5	0.247803	
1152	0.247803	
1152.5	0.247498	
1153	0.245361	
1153.5	0.243225	
1154	0.24231	
1154.5	0.24231	
1155	0.24292	
1155.5	0.242004	
1156	0.241089	
1156.5	0.238037	
1157	0.238037	
1157.5	0.237122	
1158	0.237427	
1158.5	0.235901	
1159	0.233459	
1159.5	0.232544	
1160	0.232544	
1160.5	0.233154	
1161	0.230713	
1161.5	0.228882	
1162	0.227661	
1162.5	0.227661	
1163	0.227966	
1163.5	0.227966	
1164	0.22583	
1164.5	0.223999	
1165	0.222778	
1165.5	0.222473	
1166	0.223083	
1166.5	0.221558	
1167	0.219421	
1167.5	0.218201	
1168	0.218201	
1168.5	0.218506	
1169	0.21637	
1169.5	0.214844	
1170	0.213318	
1170.5	0.213013	
1171	0.213318	
1171.5	0.212097	
1172	0.210571	
1172.5	0.208435	
1173	0.20813	
1173.5	0.20813	
1174	0.206909	
1174.5	0.203552	
1175	0.203552	
1175.5	0.203857	
1176	0.203247	
1176.5	0.202332	
1177	0.198975	
1177.5	0.199585	
1178	0.198364	
1178.5	0.198669	
1179	0.196838	
1179.5	0.194397	
1180	0.194092	
1180.5	0.194092	
1181	0.193481	
1181.5	0.193481	
1182	0.192566	
1182.5	0.189819	
1183	0.188293	
1183.5	0.188599	
1184	0.188904	
1184.5	0.187683	
1185	0.184631	
1185.5	0.184021	
1186	0.183716	
1186.5	0.183411	
1187	0.18219	
1187.5	0.179749	
1188	0.178833	
1188.5	0.178223	
1189	0.179138	
1189.5	0.177612	
1190	0.175171	
1190.5	0.174255	
1191	0.17395	
1191.5	0.174561	
1192	0.173645	
1192.5	0.172729	
1193	0.170593	
1193.5	0.169067	
1194	0.169067	
1194.5	0.168762	
1195	0.167236	
1195.5	0.165405	
1196	0.164185	
1196.5	0.164185	
1197	0.163879	
1197.5	0.163269	
1198	0.160217	
1198.5	0.159302	
1199	0.159302	
1199.5	0.158997	
1200	0.158386	
1200.5	0.158386	
1201	0.15564	
1201.5	0.154114	
1202	0.154419	
1202.5	0.154114	
1203	0.153503	
1203.5	0.150146	
1204	0.149231	
1204.5	0.149231	
1205	0.148926	
1205.5	0.148926	
1206	0.149231	
1206.5	0.146484	
1207	0.144653	
1207.5	0.144348	
1208	0.144348	
1208.5	0.144653	
1209	0.143738	
1209.5	0.141602	
1210	0.138855	
1210.5	0.139465	
1211	0.139465	
1211.5	0.139465	
1212	0.13916	
1212.5	0.135803	
1213	0.135193	
1213.5	0.134277	
1214	0.133972	
1214.5	0.134583	
1215	0.134277	
1215.5	0.131836	
1216	0.13031	
1216.5	0.130005	
1217	0.1297	
1217.5	0.1297	
1218	0.129395	
1218.5	0.126343	
1219	0.125427	
1219.5	0.124817	
1220	0.124817	
1220.5	0.124817	
1221	0.124512	
1221.5	0.124207	
1222	0.121765	
1222.5	0.119934	
1223	0.119629	
1223.5	0.119324	
1224	0.119934	
1224.5	0.119629	
1225	0.119324	
1225.5	0.116577	
1226	0.115967	
1226.5	0.114746	
1227	0.114746	
1227.5	0.114746	
1228	0.115356	
1228.5	0.114746	
1229	0.112305	
1229.5	0.110474	
1230	0.110168	
1230.5	0.109558	
1231	0.110474	
1231.5	0.110168	
1232	0.110474	
1232.5	0.109558	
1233	0.106812	
1233.5	0.105286	
1234	0.105286	
1234.5	0.10498	
1235	0.105591	
1235.5	0.10498	
1236	0.105286	
1236.5	0.10498	
1237	0.101929	
1237.5	0.101013	
1238	0.100708	
1238.5	0.100098	
1239	0.100708	
1239.5	0.0997925	
1240	0.100708	
1240.5	0.100708	
1241	0.100708	
1241.5	0.0976563	
1242	0.0967407	
1242.5	0.0949097	
1243	0.0958252	
1243.5	0.09552	
1244	0.0958252	
1244.5	0.0952148	
1245	0.0952148	
1245.5	0.09552	
1246	0.0949097	
1246.5	0.0924683	
1247	0.0906372	
1247.5	0.0906372	
1248	0.090332	
1248.5	0.090332	
1249	0.0900269	
1249.5	0.0897217	
1250	0.0900269	
1250.5	0.090332	
1251	0.090332	
1251.5	0.0912476	
1252	0.0875854	
1252.5	0.0860596	
1253	0.085144	
1253.5	0.0854492	
1254	0.085144	
1254.5	0.085144	
1255	0.0854492	
1255.5	0.0854492	
1256	0.085144	
1256.5	0.0857544	
1257	0.0854492	
1257.5	0.083313	
1258	0.0805664	
1258.5	0.0805664	
1259	0.0799561	
1259.5	0.0808716	
1260	0.0805664	
1260.5	0.0808716	
1261	0.0808716	
1261.5	0.0799561	
1262	0.0805664	
1262.5	0.0802612	
1263	0.0802612	
1263.5	0.0787354	
1264	0.0772095	
1264.5	0.0762939	
1265	0.0759888	
1265.5	0.0762939	
1266	0.0756836	
1266.5	0.0759888	
1267	0.0759888	
1267.5	0.0756836	
1268	0.0765991	
1268.5	0.0762939	
1269	0.0735474	
1269.5	0.0720215	
1270	0.071106	
1270.5	0.071106	
1271	0.0717163	
1271.5	0.0708008	
1272	0.071106	
1272.5	0.071106	
1273	0.0717163	
1273.5	0.0714111	
1274	0.071106	
1274.5	0.0717163	
1275	0.0695801	
1275.5	0.0662231	
1276	0.0665283	
1276.5	0.0662231	
1277	0.065918	
1277.5	0.0662231	
1278	0.065918	
1278.5	0.0662231	
1279	0.065918	
1279.5	0.065918	
1280	0.0665283	
1280.5	0.0643921	
1281	0.0622559	
1281.5	0.0613403	
1282	0.0616455	
1282.5	0.0616455	
1283	0.0616455	
1283.5	0.0613403	
1284	0.0616455	
1284.5	0.0619507	
1285	0.0613403	
1285.5	0.0616455	
1286	0.0613403	
1286.5	0.0595093	
1287	0.0582886	
1287.5	0.0570679	
1288	0.0567627	
1288.5	0.0567627	
1289	0.0567627	
1289.5	0.0570679	
1290	0.0567627	
1290.5	0.0570679	
1291	0.0558472	
1291.5	0.0564575	
1292	0.0552368	
1292.5	0.0524902	
1293	0.0515747	
1293.5	0.0518799	
1294	0.0518799	
1294.5	0.0515747	
1295	0.0521851	
1295.5	0.0509644	
1296	0.0509644	
1296.5	0.0518799	
1297	0.0515747	
1297.5	0.0521851	
1298	0.0515747	
1298.5	0.0497437	
1299	0.0476074	
1299.5	0.0473022	
1300	0.0460815	
1300.5	0.0463867	
1301	0.0469971	
1301.5	0.0469971	
1302	0.0463867	
1302.5	0.0463867	
1303	0.0469971	
1303.5	0.0469971	
1304	0.0466919	
1304.5	0.0466919	
1305	0.045166	
1305.5	0.043335	
1306	0.0415039	
1306.5	0.0415039	
1307	0.0415039	
1307.5	0.0424194	
1308	0.0424194	
1308.5	0.0418091	
1309	0.0418091	
1309.5	0.0415039	
1310	0.0418091	
1310.5	0.0411987	
1311	0.0424194	
1311.5	0.0424194	
1312	0.0402832	
1312.5	0.0384521	
1313	0.0369263	
1313.5	0.0369263	
1314	0.0369263	
1314.5	0.0372314	
1315	0.0375366	
1315.5	0.0375366	
1316	0.0369263	
1316.5	0.0372314	
1317	0.0369263	
1317.5	0.0369263	
1318	0.0375366	
1318.5	0.0357056	
1319	0.032959	
1319.5	0.0323486	
1320	0.0317383	
1320.5	0.0320435	
1321	0.0317383	
1321.5	0.0317383	
1322	0.0320435	
1322.5	0.0314331	
1323	0.0323486	
1323.5	0.0320435	
1324	0.0320435	
1324.5	0.0311279	
1325	0.0320435	
1325.5	0.0311279	
1326	0.0286865	
1326.5	0.0271606	
1327	0.0271606	
1327.5	0.0271606	
1328	0.0271606	
1328.5	0.0271606	
1329	0.0268555	
1329.5	0.0274658	
1330	0.0274658	
1330.5	0.0274658	
1331	0.0271606	
1331.5	0.0274658	
1332	0.0271606	
1332.5	0.0265503	
1333	0.0238037	
1333.5	0.0222778	
1334	0.0219727	
1334.5	0.022583	
1335	0.022583	
1335.5	0.0222778	
1336	0.022583	
1336.5	0.0219727	
1337	0.0216675	
1337.5	0.0219727	
1338	0.0222778	
1338.5	0.0219727	
1339	0.0216675	
1339.5	0.0183105	
1340	0.0180054	
1340.5	0.0170898	
1341	0.017395	
1341.5	0.017395	
1342	0.017395	
1342.5	0.017395	
1343	0.0177002	
1343.5	0.0170898	
1344	0.0164795	
1344.5	0.0177002	
1345	0.0167847	
1345.5	0.0170898	
1346	0.0170898	
1346.5	0.0140381	
1347	0.0125122	
1347.5	0.0128174	
1348	0.012207	
1348.5	0.012207	
1349	0.012207	
1349.5	0.0119019	
1350	0.0125122	
1350.5	0.012207	
1351	0.0125122	
1351.5	0.0119019	
1352	0.012207	
1352.5	0.0125122	
1353	0.012207	
1353.5	0.00915527	
1354	0.00823975	
1354.5	0.00762939	
1355	0.00823975	
1355.5	0.00823975	
1356	0.00732422	
1356.5	0.00762939	
1357	0.00762939	
1357.5	0.00762939	
1358	0.00732422	
1358.5	0.00701904	
1359	0.00732422	
1359.5	0.00701904	
1360	0.00396729	
1360.5	0.00335693	
1361	0.00244141	
1361.5	0.00244141	
1362	0.00244141	
1362.5	0.00213623	
1363	0.00244141	
1363.5	0.00366211	
1364	0.00305176	
1364.5	0.00213623	
1365	0.00244141	
1365.5	0.00274658	
1366	0.00274658	
1366.5	0.00213623	
1367	-0.000610352	
1367.5	-0.00183105	
1368	-0.00152588	
1368.5	-0.00244141	
1369	-0.00274658	
1369.5	-0.00213623	
1370	-0.00244141	
1370.5	-0.00213623	
1371	-0.00183105	
1371.5	-0.00213623	
1372	-0.00274658	
1372.5	-0.00213623	
1373	-0.00244141	
1373.5	-0.00488281	
1374	-0.00610352	
1374.5	-0.00732422	
1375	-0.00701904	
1375.5	-0.00732422	
1376	-0.00701904	
1376.5	-0.00701904	
1377	-0.00640869	
1377.5	-0.00701904	
1378	-0.00671387	
1378.5	-0.00701904	
1379	-0.00732422	
1379.5	-0.00732422	
1380	-0.00762939	
1380.5	-0.00976563	
1381	-0.0119019	
1381.5	-0.012207	
1382	-0.0125122	
1382.5	-0.0115967	
1383	-0.0125122	
1383.5	-0.0125122	
1384	-0.0115967	
1384.5	-0.0112915	
1385	-0.0119019	
1385.5	-0.012207	
1386	-0.012207	
1386.5	-0.012207	
1387	-0.0125122	
1387.5	-0.0115967	
1388	-0.0143433	
1388.5	-0.0161743	
1389	-0.0167847	
1389.5	-0.0164795	
1390	-0.0167847	
1390.5	-0.017395	
1391	-0.017395	
1391.5	-0.017395	
1392	-0.0180054	
1392.5	-0.017395	
1393	-0.0167847	
1393.5	-0.0170898	
1394	-0.0170898	
1394.5	-0.017395	
1395	-0.0167847	
1395.5	-0.0195313	
1396	-0.0216675	
1396.5	-0.0216675	
1397	-0.0222778	
1397.5	-0.0216675	
1398	-0.0216675	
1398.5	-0.0222778	
1399	-0.022583	
1399.5	-0.0219727	
1400	-0.0219727	
1400.5	-0.0219727	
1401	-0.0219727	
1401.5	-0.0222778	
1402	-0.0222778	
1402.5	-0.0222778	
1403	-0.0219727	
1403.5	-0.0238037	
1404	-0.0256348	
1404.5	-0.0265503	
1405	-0.0265503	
1405.5	-0.0268555	
1406	-0.0268555	
1406.5	-0.0271606	
1407	-0.0274658	
1407.5	-0.0262451	
1408	-0.0265503	
1408.5	-0.0271606	
1409	-0.0268555	
1409.5	-0.0268555	
1410	-0.0265503	
1410.5	-0.0271606	
1411	-0.0265503	
1411.5	-0.0286865	
1412	-0.0311279	
1412.5	-0.0314331	
1413	-0.0317383	
1413.5	-0.0317383	
1414	-0.0320435	
1414.5	-0.0314331	
1415	-0.0314331	
1415.5	-0.0317383	
1416	-0.0320435	
1416.5	-0.0320435	
1417	-0.0317383	
1417.5	-0.0320435	
1418	-0.0311279	
1418.5	-0.0320435	
1419	-0.032959	
1419.5	-0.0363159	
1420	-0.0360107	
1420.5	-0.0366211	
1421	-0.0369263	
1421.5	-0.0366211	
1422	-0.0369263	
1422.5	-0.0369263	
1423	-0.0369263	
1423.5	-0.0366211	
1424	-0.0363159	
1424.5	-0.0366211	
1425	-0.0360107	
1425.5	-0.0366211	
1426	-0.0366211	
1426.5	-0.0366211	
1427	-0.0375366	
1427.5	-0.0408936	
1428	-0.0415039	
1428.5	-0.0411987	
1429	-0.0421143	
1429.5	-0.0421143	
1430	-0.0415039	
1430.5	-0.0418091	
1431	-0.0415039	
1431.5	-0.0415039	
1432	-0.0408936	
1432.5	-0.0411987	
1433	-0.0411987	
1433.5	-0.0415039	
1434	-0.0411987	
1434.5	-0.0436401	
1435	-0.0454712	
1435.5	-0.0463867	
1436	-0.0466919	
1436.5	-0.0466919	
1437	-0.0473022	
1437.5	-0.0466919	
1438	-0.0466919	
1438.5	-0.0460815	
1439	-0.0463867	
1439.5	-0.0463867	
1440	-0.0469971	
1440.5	-0.0466919	
1441	-0.0469971	
1441.5	-0.0466919	
1442	-0.0473022	
1442.5	-0.0497437	
1443	-0.0512695	
1443.5	-0.0512695	
1444	-0.0515747	
1444.5	-0.0512695	
1445	-0.0515747	
1445.5	-0.0518799	
1446	-0.0509644	
1446.5	-0.0509644	
1447	-0.0515747	
1447.5	-0.0518799	
1448	-0.0515747	
1448.5	-0.0512695	
1449	-0.0509644	
1449.5	-0.0512695	
1450	-0.0518799	
1450.5	-0.0521851	
1451	-0.0540161	
1451.5	-0.0558472	
1452	-0.0561523	
1452.5	-0.0561523	
1453	-0.0564575	
1453.5	-0.0567627	
1454	-0.0567627	
1454.5	-0.0561523	
1455	-0.055542	
1455.5	-0.0567627	
1456	-0.0564575	
1456.5	-0.0567627	
1457	-0.0564575	
1457.5	-0.0567627	
1458	-0.0561523	
1458.5	-0.0561523	
1459	-0.0564575	
1459.5	-0.0567627	
1460	-0.0598145	
1460.5	-0.0610352	
1461	-0.0610352	
1461.5	-0.0610352	
1462	-0.0616455	
1462.5	-0.0610352	
1463	-0.06073	
1463.5	-0.0613403	
1464	-0.0616455	
1464.5	-0.0610352	
1465	-0.0604248	
1465.5	-0.06073	
1466	-0.0610352	
1466.5	-0.06073	
1467	-0.0613403	
1467.5	-0.0610352	
1468	-0.0616455	
1468.5	-0.0610352	
1469	-0.0610352	
1469.5	-0.0616455	
1470	-0.0616455	
1470.5	-0.0650024	
1471	-0.0662231	
1471.5	-0.0656128	
1472	-0.0656128	
1472.5	-0.0662231	
1473	-0.065918	
1473.5	-0.0662231	
1474	-0.0662231	
1474.5	-0.0662231	
1475	-0.0656128	
1475.5	-0.0662231	
1476	-0.0656128	
1476.5	-0.0665283	
1477	-0.0662231	
1477.5	-0.0656128	
1478	-0.065918	
1478.5	-0.0668335	
1479	-0.0662231	
1479.5	-0.0662231	
1480	-0.0668335	
1480.5	-0.065918	
1481	-0.065918	
1481.5	-0.0662231	
1482	-0.065918	
1482.5	-0.065918	
1483	-0.0662231	
1483.5	-0.0662231	
1484	-0.0692749	
1484.5	-0.0704956	
1485	-0.071106	
1485.5	-0.0714111	
1486	-0.0708008	
1486.5	-0.071106	
1487	-0.071106	
1487.5	-0.0714111	
1488	-0.0717163	
1488.5	-0.0708008	
1489	-0.0708008	
1489.5	-0.0704956	
1490	-0.0708008	
1490.5	-0.0701904	
1491	-0.071106	
1491.5	-0.0704956	
1492	-0.0714111	
1492.5	-0.0720215	
1493	-0.0708008	
1493.5	-0.0708008	
1494	-0.071106	
1494.5	-0.0708008	
1495	-0.071106	
1495.5	-0.0708008	
1496	-0.071106	
1496.5	-0.0708008	
1497	-0.0717163	
1497.5	-0.071106	
1498	-0.0717163	
1498.5	-0.0708008	
1499	-0.071106	
1499.5	-0.071106	
1500	-0.0708008	
1500.5	-0.0732422	
1501	-0.0750732	
1501.5	-0.0759888	
1502	-0.0762939	
1502.5	-0.0759888	
1503	-0.0759888	
1503.5	-0.0759888	
1504	-0.0756836	
1504.5	-0.0759888	
1505	-0.0759888	
1505.5	-0.0759888	
1506	-0.0756836	
1506.5	-0.0765991	
1507	-0.0765991	
1507.5	-0.0762939	
1508	-0.0762939	
1508.5	-0.0762939	
1509	-0.0750732	
1509.5	-0.0759888	
1510	-0.0759888	
1510.5	-0.0759888	
1511	-0.0753784	
1511.5	-0.0756836	
1512	-0.0765991	
1512.5	-0.0759888	
1513	-0.0759888	
1513.5	-0.0756836	
1514	-0.0756836	
1514.5	-0.0753784	
1515	-0.0759888	
1515.5	-0.0762939	
1516	-0.0759888	
1516.5	-0.0753784	
1517	-0.0765991	
1517.5	-0.0762939	
1518	-0.0756836	
1518.5	-0.0775146	
1519	-0.0799561	
1519.5	-0.0802612	
1520	-0.0805664	
1520.5	-0.0808716	
1521	-0.0799561	
1521.5	-0.0802612	
1522	-0.0805664	
1522.5	-0.0811768	
1523	-0.0808716	
1523.5	-0.0805664	
1524	-0.0805664	
1524.5	-0.0808716	
1525	-0.0808716	
1525.5	-0.0802612	
1526	-0.0805664	
1526.5	-0.0796509	
1527	-0.0808716	
1527.5	-0.0808716	
1528	-0.0802612	
1528.5	-0.0799561	
1529	-0.0808716	
1529.5	-0.0811768	
1530	-0.0799561	
1530.5	-0.0808716	
1531	-0.0802612	
1531.5	-0.0802612	
1532	-0.0808716	
1532.5	-0.0802612	
1533	-0.0808716	
1533.5	-0.0814819	
1534	-0.0805664	
1534.5	-0.0827026	
1535	-0.0845337	
1535.5	-0.0854492	
1536	-0.0857544	
1536.5	-0.0854492	
1537	-0.0854492	
1537.5	-0.0854492	
1538	-0.0860596	
1538.5	-0.085144	
1539	-0.0854492	
1539.5	-0.0848389	
1540	-0.0857544	
1540.5	-0.0857544	
1541	-0.0869751	
1541.5	-0.0854492	
1542	-0.0857544	
1542.5	-0.0857544	
1543	-0.0854492	
1543.5	-0.0854492	
1544	-0.0854492	
1544.5	-0.0854492	
1545	-0.085144	
1545.5	-0.0854492	
1546	-0.0854492	
1546.5	-0.0860596	
1547	-0.0860596	
1547.5	-0.085144	
1548	-0.0860596	
1548.5	-0.0854492	
1549	-0.0860596	
1549.5	-0.0854492	
1550	-0.0854492	
1550.5	-0.0854492	
1551	-0.0863647	
1551.5	-0.085144	
1552	-0.0854492	
1552.5	-0.0857544	
1553	-0.0854492	
1553.5	-0.085144	
1554	-0.0854492	
1554.5	-0.0854492	
1555	-0.0854492	
1555.5	-0.0857544	
1556	-0.0863647	
1556.5	-0.0860596	
1557	-0.085144	
1557.5	-0.0857544	
1558	-0.0845337	
1558.5	-0.0860596	
1559	-0.0854492	
1559.5	-0.0857544	
1560	-0.0857544	
1560.5	-0.0860596	
1561	-0.0863647	
1561.5	-0.0854492	
1562	-0.0857544	
1562.5	-0.0854492	
1563	-0.0848389	
1563.5	-0.0814819	
1564	-0.0808716	
1564.5	-0.0805664	
1565	-0.0802612	
1565.5	-0.0808716	
1566	-0.0811768	
1566.5	-0.0802612	
1567	-0.0808716	
1567.5	-0.0811768	
1568	-0.0808716	
1568.5	-0.0808716	
1569	-0.0808716	
1569.5	-0.0793457	
1570	-0.0772095	
1570.5	-0.0759888	
1571	-0.0759888	
1571.5	-0.0762939	
1572	-0.0762939	
1572.5	-0.0756836	
1573	-0.0762939	
1573.5	-0.0756836	
1574	-0.072937	
1574.5	-0.0717163	
1575	-0.0717163	
1575.5	-0.071106	
1576	-0.0708008	
1576.5	-0.071106	
1577	-0.0704956	
1577.5	-0.0668335	
1578	-0.0662231	
1578.5	-0.065918	
1579	-0.0665283	
1579.5	-0.0662231	
1580	-0.0656128	
1580.5	-0.0619507	
1581	-0.0610352	
1581.5	-0.06073	
1582	-0.0616455	
1582.5	-0.06073	
1583	-0.057373	
1583.5	-0.0567627	
1584	-0.0564575	
1584.5	-0.0561523	
1585	-0.055542	
1585.5	-0.0527954	
1586	-0.0515747	
1586.5	-0.0512695	
1587	-0.0509644	
1587.5	-0.0482178	
1588	-0.0476074	
1588.5	-0.0469971	
1589	-0.0463867	
1589.5	-0.0430298	
1590	-0.0415039	
1590.5	-0.0411987	
1591	-0.0415039	
1591.5	-0.038147	
1592	-0.0369263	
1592.5	-0.0366211	
1593	-0.0338745	
1593.5	-0.0317383	
1594	-0.0314331	
1594.5	-0.0311279	
1595	-0.0286865	
1595.5	-0.0271606	
1596	-0.0265503	
1596.5	-0.0238037	
1597	-0.0222778	
1597.5	-0.0216675	
1598	-0.0192261	
1598.5	-0.0170898	
1599	-0.0164795	
1599.5	-0.0140381	
1600	-0.0125122	
1600.5	-0.0119019	
1601	-0.00976563	
1601.5	-0.00762939	
1602	-0.00732422	
1602.5	-0.00427246	
1603	-0.00213623	
1603.5	-0.00183105	
1604	0.000915527	
1604.5	0.00213623	
1605	0.00244141	
1605.5	0.00518799	
1606	0.00701904	
1606.5	0.00762939	
1607	0.0106812	
1607.5	0.0119019	
1608	0.015564	
1608.5	0.0167847	
1609	0.017395	
1609.5	0.0198364	
1610	0.0213623	
1610.5	0.0250244	
1611	0.0268555	
1611.5	0.0265503	
1612	0.0299072	
1612.5	0.0314331	
1613	0.0320435	
1613.5	0.0357056	
1614	0.0366211	
1614.5	0.0402832	
1615	0.0421143	
1615.5	0.0445557	
1616	0.0463867	
1616.5	0.0469971	
1617	0.0488281	
1617.5	0.0518799	
1618	0.0552368	
1618.5	0.0567627	
1619	0.0564575	
1619.5	0.0598145	
1620	0.0616455	
1620.5	0.0640869	
1621	0.065918	
1621.5	0.0668335	
1622	0.0692749	
1622.5	0.071106	
1623	0.072937	
1623.5	0.0759888	
1624	0.0787354	
1624.5	0.0802612	
1625	0.0799561	
1625.5	0.0830078	
1626	0.085144	
1626.5	0.0881958	
1627	0.0909424	
1627.5	0.0927734	
1628	0.0952148	
1628.5	0.0958252	
1629	0.0985718	
1629.5	0.0997925	
1630	0.102844	
1630.5	0.104675	
1631	0.108032	
1631.5	0.109558	
1632	0.109863	
1632.5	0.11261	
1633	0.114136	
1633.5	0.117493	
1634	0.119324	
1634.5	0.12207	
1635	0.124207	
1635.5	0.124207	
1636	0.126648	
1636.5	0.129089	
1637	0.132751	
1637.5	0.133667	
1638	0.136108	
1638.5	0.13855	
1639	0.139465	
1639.5	0.141602	
1640	0.143738	
1640.5	0.1474	
1641	0.148621	
1641.5	0.149841	
1642	0.151978	
1642.5	0.153503	
1643	0.156555	
1643.5	0.158386	
1644	0.158997	
1644.5	0.161133	
1645	0.163269	
1645.5	0.166626	
1646	0.167542	
1646.5	0.168762	
1647	0.171509	
1647.5	0.172729	
1648	0.176086	
1648.5	0.177917	
1649	0.178833	
1649.5	0.180359	
1650	0.182495	
1650.5	0.186157	
1651	0.187988	
1651.5	0.188293	
1652	0.19043	
1652.5	0.192261	
1653	0.193176	
1653.5	0.195923	
1654	0.198059	
1654.5	0.200806	
1655	0.202942	
1655.5	0.203247	
1656	0.205383	
1656.5	0.20752	
1657	0.20813	
1657.5	0.210876	
1658	0.212708	
1658.5	0.213623	
1659	0.215454	
1659.5	0.21698	
1660	0.217896	
1660.5	0.220032	
1661	0.222473	
1661.5	0.223389	
1662	0.22522	
1662.5	0.227356	
1663	0.228271	
1663.5	0.229797	
1664	0.232239	
1664.5	0.232544	
1665	0.235291	
1665.5	0.236511	
1666	0.237427	
1666.5	0.239868	
1667	0.241394	
1667.5	0.242615	
1668	0.244141	
1668.5	0.246277	
1669	0.247192	
1669.5	0.247192	
1670	0.249329	
1670.5	0.25177	
1671	0.25238	
1671.5	0.253601	
1672	0.256958	
1672.5	0.256653	
1673	0.257568	
1673.5	0.258484	
1674	0.260925	
1674.5	0.261841	
1675	0.263672	
1675.5	0.267029	
1676	0.267029	
1676.5	0.267334	
1677	0.269165	
1677.5	0.270996	
1678	0.272217	
1678.5	0.271606	
1679	0.273132	
1679.5	0.275574	
1680	0.2771	
1680.5	0.276794	
1681	0.278625	
1681.5	0.280151	
1682	0.281372	
1682.5	0.281982	
1683	0.283203	
1683.5	0.286255	
1684	0.286255	
1684.5	0.286255	
1685	0.287476	
1685.5	0.290527	
1686	0.292053	
1686.5	0.292053	
1687	0.291443	
1687.5	0.292969	
1688	0.295105	
1688.5	0.296326	
1689	0.296936	
1689.5	0.296631	
1690	0.297852	
1690.5	0.300293	
1691	0.301819	
1691.5	0.301208	
1692	0.302429	
1692.5	0.304871	
1693	0.306091	
1693.5	0.306396	
1694	0.306702	
1694.5	0.306702	
1695	0.307312	
1695.5	0.309448	
1696	0.310974	
1696.5	0.310974	
1697	0.310974	
1697.5	0.3125	
1698	0.314636	
1698.5	0.315552	
1699	0.316467	
1699.5	0.316162	
1700	0.316162	
1700.5	0.317078	
1701	0.319519	
1701.5	0.32074	
1702	0.321045	
1702.5	0.32135	
1703	0.32074	
1703.5	0.32074	
1704	0.322266	
1704.5	0.325012	
1705	0.325317	
1705.5	0.325928	
1706	0.325928	
1706.5	0.326538	
1707	0.326538	
1707.5	0.326233	
1708	0.328674	
1708.5	0.330505	
1709	0.330505	
1709.5	0.3302	
1710	0.331421	
1710.5	0.330811	
1711	0.330811	
1711.5	0.331421	
1712	0.334167	
1712.5	0.335693	
1713	0.335083	
1713.5	0.335388	
1714	0.335693	
1714.5	0.335693	
1715	0.335999	
1715.5	0.335999	
1716	0.336609	
1716.5	0.33905	
1717	0.340881	
1717.5	0.340271	
1718	0.341492	
1718.5	0.340271	
1719	0.340576	
1719.5	0.341187	
1720	0.340881	
1720.5	0.341492	
1721	0.341187	
1721.5	0.340881	
1722	0.344238	
1722.5	0.344849	
1723	0.345764	
1723.5	0.345459	
1724	0.346069	
1724.5	0.345459	
1725	0.345154	
1725.5	0.345764	
1726	0.345764	
1726.5	0.345459	
1727	0.345764	
1727.5	0.345764	
1728	0.345764	
1728.5	0.349121	
1729	0.350037	
1729.5	0.350952	
1730	0.350647	
1730.5	0.350952	
1731	0.350647	
1731.5	0.350952	
1732	0.350037	
1732.5	0.350647	
1733	0.350647	
1733.5	0.350952	
1734	0.350647	
1734.5	0.350647	
1735	0.350647	
1735.5	0.350647	
1736	0.350952	
1736.5	0.350952	
1737	0.350342	
1737.5	0.350647	
1738	0.350952	
1738.5	0.350647	
1739	0.350952	
1739.5	0.350037	
1740	0.350342	
1740.5	0.350647	
1741	0.353394	
1741.5	0.355225	
1742	0.355225	
1742.5	0.35553	
1743	0.354919	
1743.5	0.35614	
1744	0.35553	
1744.5	0.35553	
1745	0.355225	
1745.5	0.355835	
1746	0.355835	
1746.5	0.354919	
1747	0.35553	
1747.5	0.35553	
1748	0.355835	
1748.5	0.355225	
1749	0.35553	
1749.5	0.355835	
1750	0.355225	
1750.5	0.354919	
1751	0.354919	
1751.5	0.355835	
1752	0.35553	
1752.5	0.354919	
1753	0.355835	
1753.5	0.35553	
1754	0.35553	
1754.5	0.355225	
1755	0.35553	
1755.5	0.355835	
1756	0.35614	
1756.5	0.35553	
1757	0.355225	
1757.5	0.35553	
1758	0.355225	
1758.5	0.353394	
1759	0.351563	
1759.5	0.350647	
1760	0.350342	
1760.5	0.350037	
1761	0.350037	
1761.5	0.350647	
1762	0.350647	
1762.5	0.350647	
1763	0.350647	
1763.5	0.350037	
1764	0.350342	
1764.5	0.350647	
1765	0.350647	
1765.5	0.350647	
1766	0.350342	
1766.5	0.350037	
1767	0.350647	
1767.5	0.350037	
1768	0.350342	
1768.5	0.350647	
1769	0.350037	
1769.5	0.351563	
1770	0.348511	
1770.5	0.346985	
1771	0.345764	
1771.5	0.346069	
1772	0.345764	
1772.5	0.345459	
1773	0.34668	
1773.5	0.345459	
1774	0.345154	
1774.5	0.345764	
1775	0.345154	
1775.5	0.346069	
1776	0.345764	
1776.5	0.344543	
1777	0.343628	
1777.5	0.341492	
1778	0.340881	
1778.5	0.340881	
1779	0.340881	
1779.5	0.340271	
1780	0.340576	
1780.5	0.340576	
1781	0.340576	
1781.5	0.339966	
1782	0.340271	
1782.5	0.33905	
1783	0.336304	
1783.5	0.335999	
1784	0.335999	
1784.5	0.335999	
1785	0.335999	
1785.5	0.335388	
1786	0.335388	
1786.5	0.335693	
1787	0.334473	
1787.5	0.330811	
1788	0.331421	
1788.5	0.330505	
1789	0.330505	
1789.5	0.331116	
1790	0.330811	
1790.5	0.330811	
1791	0.32959	
1791.5	0.326843	
1792	0.325928	
1792.5	0.325928	
1793	0.325623	
1793.5	0.325928	
1794	0.325623	
1794.5	0.324402	
1795	0.321655	
1795.5	0.321045	
1796	0.32135	
1796.5	0.321655	
1797	0.321655	
1797.5	0.32135	
1798	0.319214	
1798.5	0.317383	
1799	0.316772	
1799.5	0.316162	
1800	0.316162	
1800.5	0.315857	
1801	0.315247	
1801.5	0.31189	
1802	0.311279	
1802.5	0.311279	
1803	0.311279	
1803.5	0.311279	
1804	0.310059	
1804.5	0.307617	
1805	0.306396	
1805.5	0.306091	
1806	0.306091	
1806.5	0.306702	
1807	0.305176	
1807.5	0.302429	
1808	0.301208	
1808.5	0.301208	
1809	0.301514	
1809.5	0.301819	
1810	0.300293	
1810.5	0.297852	
1811	0.297241	
1811.5	0.296936	
1812	0.296021	
1812.5	0.29541	
1813	0.293579	
1813.5	0.292358	
1814	0.292053	
1814.5	0.291748	
1815	0.289917	
1815.5	0.287476	
1816	0.287476	
1816.5	0.286255	
1817	0.28656	
1817.5	0.286255	
1818	0.285339	
1818.5	0.282898	
1819	0.281677	
1819.5	0.282593	
1820	0.282288	
1820.5	0.281067	
1821	0.279236	
1821.5	0.2771	
1822	0.277405	
1822.5	0.2771	
1823	0.275574	
1823.5	0.273438	
1824	0.272217	
1824.5	0.272217	
1825	0.272217	
1825.5	0.270996	
1826	0.268555	
1826.5	0.267334	
1827	0.267639	
1827.5	0.266418	
1828	0.266418	
1828.5	0.263977	
1829	0.262756	
1829.5	0.262451	
1830	0.261841	
1830.5	0.262146	
1831	0.259094	
1831.5	0.257568	
1832	0.256958	
1832.5	0.257568	
1833	0.256653	
1833.5	0.256653	
1834	0.253296	
1834.5	0.252991	
1835	0.252686	
1835.5	0.252686	
1836	0.252075	
1836.5	0.248718	
1837	0.247803	
1837.5	0.247192	
1838	0.247498	
1838.5	0.247192	
1839	0.244141	
1839.5	0.24292	
1840	0.24292	
1840.5	0.24231	
1841	0.242004	
1841.5	0.238953	
1842	0.237122	
1842.5	0.237427	
1843	0.237122	
1843.5	0.237427	
1844	0.234375	
1844.5	0.233459	
1845	0.233154	
1845.5	0.232239	
1846	0.232544	
1846.5	0.229492	
1847	0.228882	
1847.5	0.227356	
1848	0.227661	
1848.5	0.227661	
1849	0.224609	
1849.5	0.223389	
1850	0.223083	
1850.5	0.223389	
1851	0.222778	
1851.5	0.219727	
1852	0.218201	
1852.5	0.218201	
1853	0.218201	
1853.5	0.217896	
1854	0.21759	
1854.5	0.215149	
1855	0.213623	
1855.5	0.213928	
1856	0.213623	
1856.5	0.213013	
1857	0.210876	
1857.5	0.20874	
1858	0.208435	
1858.5	0.20874	
1859	0.208435	
1859.5	0.20813	
1860	0.205688	
1860.5	0.202942	
1861	0.204163	
1861.5	0.203247	
1862	0.202637	
1862.5	0.200806	
1863	0.198975	
1863.5	0.198364	
1864	0.198669	
1864.5	0.198975	
1865	0.19928	
1865.5	0.195313	
1866	0.193787	
1866.5	0.193481	
1867	0.193481	
1867.5	0.193176	
1868	0.193176	
1868.5	0.190735	
1869	0.189209	
1869.5	0.188904	
1870	0.188293	
1870.5	0.187988	
1871	0.187988	
1871.5	0.186157	
1872	0.184021	
1872.5	0.184021	
1873	0.184021	
1873.5	0.183411	
1874	0.183716	
1874.5	0.180359	
1875	0.179138	
1875.5	0.178528	
1876	0.178833	
1876.5	0.178833	
1877	0.178833	
1877.5	0.179138	
1878	0.176392	
1878.5	0.174866	
1879	0.174255	
1879.5	0.17395	
1880	0.17334	
1880.5	0.17395	
1881	0.174255	
1881.5	0.170898	
1882	0.169373	
1882.5	0.169067	
1883	0.168457	
1883.5	0.169678	
1884	0.168762	
1884.5	0.168762	
1885	0.166321	
1885.5	0.164795	
1886	0.16449	
1886.5	0.163879	
1887	0.164185	
1887.5	0.164185	
1888	0.164185	
1888.5	0.161438	
1889	0.159607	
1889.5	0.158997	
1890	0.158691	
1890.5	0.159912	
1891	0.158997	
1891.5	0.159302	
1892	0.159302	
1892.5	0.15686	
1893	0.154724	
1893.5	0.153809	
1894	0.154114	
1894.5	0.154419	
1895	0.154114	
1895.5	0.154724	
1896	0.154419	
1896.5	0.151672	
1897	0.150146	
1897.5	0.149231	
1898	0.149231	
1898.5	0.149231	
1899	0.148926	
1899.5	0.149231	
1900	0.149536	
1900.5	0.148926	
1901	0.147095	
1901.5	0.144958	
1902	0.144958	
1902.5	0.144348	
1903	0.144348	
1903.5	0.144348	
1904	0.144653	
1904.5	0.144348	
1905	0.144348	
1905.5	0.141907	
1906	0.140381	
1906.5	0.140076	
1907	0.139465	
1907.5	0.139771	
1908	0.139465	
1908.5	0.139771	
1909	0.139771	
1909.5	0.13916	
1910	0.139771	
1910.5	0.137329	
1911	0.135193	
1911.5	0.134888	
1912	0.134583	
1912.5	0.134888	
1913	0.134277	
1913.5	0.133972	
1914	0.134277	
1914.5	0.134888	
1915	0.132751	
1915.5	0.130005	
1916	0.130005	
1916.5	0.130005	
1917	0.129395	
1917.5	0.1297	
1918	0.1297	
1918.5	0.1297	
1919	0.13031	
1919.5	0.129395	
1920	0.127563	
1920.5	0.125427	
1921	0.124512	
1921.5	0.124817	
1922	0.124207	
1922.5	0.124512	
1923	0.124817	
1923.5	0.124512	
1924	0.124207	
1924.5	0.124817	
1925	0.122986	
1925.5	0.12085	
1926	0.119934	
1926.5	0.119629	
1927	0.119934	
1927.5	0.119629	
1928	0.119629	
1928.5	0.119324	
1929	0.119934	
1929.5	0.119019	
1930	0.115967	
1930.5	0.115051	
1931	0.115051	
1931.5	0.115356	
1932	0.114441	
1932.5	0.115662	
1933	0.115051	
1933.5	0.114746	
1934	0.11322	
1934.5	0.111084	
1935	0.109863	
1935.5	0.109558	
1936	0.110168	
1936.5	0.110168	
1937	0.110474	
1937.5	0.109863	
1938	0.109558	
1938.5	0.108948	
1939	0.106201	
1939.5	0.105896	
1940	0.105286	
1940.5	0.104675	
1941	0.10498	
1941.5	0.105896	
1942	0.105286	
1942.5	0.105286	
1943	0.104065	
1943.5	0.101013	
1944	0.100098	
1944.5	0.100708	
1945	0.100708	
1945.5	0.100403	
1946	0.100098	
1946.5	0.100098	
1947	0.0991821	
1947.5	0.0964355	
1948	0.09552	
1948.5	0.0949097	
1949	0.0952148	
1949.5	0.09552	
1950	0.09552	
1950.5	0.0952148	
1951	0.0942993	
1951.5	0.0912476	
1952	0.0900269	
1952.5	0.0906372	
1953	0.0909424	
1953.5	0.090332	
1954	0.0906372	
1954.5	0.090332	
1955	0.0897217	
1955.5	0.0866699	
1956	0.0860596	
1956.5	0.0857544	
1957	0.085144	
1957.5	0.0854492	
1958	0.0854492	
1958.5	0.085144	
1959	0.0820923	
1959.5	0.0802612	
1960	0.0805664	
1960.5	0.0805664	
1961	0.0808716	
1961.5	0.0808716	
1962	0.0802612	
1962.5	0.0805664	
1963	0.0778198	
1963.5	0.0762939	
1964	0.0765991	
1964.5	0.0762939	
1965	0.0765991	
1965.5	0.0762939	
1966	0.0756836	
1966.5	0.0726318	
1967	0.0717163	
1967.5	0.071106	
1968	0.0714111	
1968.5	0.0717163	
1969	0.071106	
1969.5	0.071106	
1970	0.067749	
1970.5	0.0665283	
1971	0.0662231	
1971.5	0.065918	
1972	0.065918	
1972.5	0.0662231	
1973	0.0668335	
1973.5	0.0662231	
1974	0.0631714	
1974.5	0.0622559	
1975	0.0616455	
1975.5	0.0610352	
1976	0.0613403	
1976.5	0.0616455	
1977	0.0613403	
1977.5	0.0585938	
1978	0.0570679	
1978.5	0.0567627	
1979	0.0567627	
1979.5	0.0570679	
1980	0.0567627	
1980.5	0.0561523	
1981	0.0540161	
1981.5	0.0518799	
1982	0.0521851	
1982.5	0.0512695	
1983	0.0518799	
1983.5	0.0518799	
1984	0.0518799	
1984.5	0.0488281	
1985	0.0466919	
1985.5	0.0473022	
1986	0.0469971	
1986.5	0.0469971	
1987	0.0466919	
1987.5	0.0460815	
1988	0.0442505	
1988.5	0.0424194	
1989	0.0421143	
1989.5	0.0411987	
1990	0.0421143	
1990.5	0.0415039	
1991	0.0418091	
1991.5	0.0390625	
1992	0.0375366	
1992.5	0.0369263	
1993	0.0366211	
1993.5	0.0375366	
1994	0.0375366	
1994.5	0.0366211	
1995	0.0338745	
1995.5	0.0326538	
1996	0.0323486	
1996.5	0.0320435	
1997	0.0317383	
1997.5	0.0314331	
1998	0.0289917	
1998.5	0.027771	
1999	0.0271606	
1999.5	0.0268555	
2000	0.027771	
2000.5	0.0265503	
2001	0.0274658	
2001.5	0.0253296	
2002	0.0228882	
2002.5	0.0222778	
2003	0.0222778	
2003.5	0.0222778	
2004	0.0216675	
2004.5	0.0192261	
2005	0.0177002	
2005.5	0.017395	
2006	0.0180054	
2006.5	0.017395	
2007	0.0167847	
2007.5	0.0164795	
2008	0.0149536	
2008.5	0.0128174	
2009	0.0125122	
2009.5	0.0119019	
2010	0.012207	
2010.5	0.012207	
2011	0.0100708	
2011.5	0.00823975	
2012	0.00732422	
2012.5	0.00762939	
2013	0.00732422	
2013.5	0.00701904	
2014	0.00762939	
2014.5	0.00488281	
2015	0.00305176	
2015.5	0.00274658	
2016	0.00244141	
2016.5	0.00213623	
2017	0.00244141	
2017.5	0.00213623	
2018	0.000610352	
2018.5	-0.00152588	
2019	-0.00213623	
2019.5	-0.00244141	
2020	-0.00183105	
2020.5	-0.00274658	
2021	-0.00488281	
2021.5	-0.00610352	
2022	-0.00732422	
2022.5	-0.00793457	
2023	-0.00732422	
2023.5	-0.00701904	
2024	-0.00762939	
2024.5	-0.00946045	
2025	-0.0115967	
2025.5	-0.012207	
2026	-0.0128174	
2026.5	-0.012207	
2027	-0.012207	
2027.5	-0.0143433	
2028	-0.0161743	
2028.5	-0.0170898	
2029	-0.017395	
2029.5	-0.0177002	
2030	-0.017395	
2030.5	-0.0167847	
2031	-0.0189209	
2031.5	-0.0210571	
2032	-0.0219727	
2032.5	-0.0219727	
2033	-0.0213623	
2033.5	-0.0222778	
2034	-0.022583	
2034.5	-0.0244141	
2035	-0.0259399	
2035.5	-0.0262451	
2036	-0.0271606	
2036.5	-0.0268555	
2037	-0.0265503	
2037.5	-0.0262451	
2038	-0.0292969	
2038.5	-0.0314331	
2039	-0.0320435	
2039.5	-0.0314331	
2040	-0.0317383	
2040.5	-0.0323486	
2041	-0.0314331	
2041.5	-0.0335693	
2042	-0.0360107	
2042.5	-0.0366211	
2043	-0.0363159	
2043.5	-0.0372314	
2044	-0.0369263	
2044.5	-0.0366211	
2045	-0.0378418	
2045.5	-0.0405884	
2046	-0.0418091	
2046.5	-0.0411987	
2047	-0.0408936	
2047.5	-0.0421143	
2048	-0.0411987	
2048.5	-0.0427246	
2049	-0.0457764	
2049.5	-0.0466919	
2050	-0.0466919	
2050.5	-0.0457764	
2051	-0.0454712	
2051.5	-0.0469971	
2052	-0.0485229	
2052.5	-0.050354	
2053	-0.0512695	
2053.5	-0.0512695	
2054	-0.0518799	
2054.5	-0.0515747	
2055	-0.0512695	
2055.5	-0.0518799	
2056	-0.0524902	
2056.5	-0.0552368	
2057	-0.0564575	
2057.5	-0.0561523	
2058	-0.0564575	
2058.5	-0.0564575	
2059	-0.0561523	
2059.5	-0.0558472	
2060	-0.057373	
2060.5	-0.0604248	
2061	-0.0610352	
2061.5	-0.06073	
2062	-0.0613403	
2062.5	-0.06073	
2063	-0.0610352	
2063.5	-0.0616455	
2064	-0.062561	
2064.5	-0.0646973	
2065	-0.065918	
2065.5	-0.0665283	
2066	-0.065918	
2066.5	-0.0665283	
2067	-0.0662231	
2067.5	-0.065918	
2068	-0.0656128	
2068.5	-0.0674438	
2069	-0.0701904	
2069.5	-0.0708008	
2070	-0.0714111	
2070.5	-0.0708008	
2071	-0.0714111	
2071.5	-0.0708008	
2072	-0.0708008	
2072.5	-0.0714111	
2073	-0.0750732	
2073.5	-0.0753784	
2074	-0.0762939	
2074.5	-0.0753784	
2075	-0.0765991	
2075.5	-0.0756836	
2076	-0.0759888	
2076.5	-0.0759888	
2077	-0.0765991	
2077.5	-0.0796509	
2078	-0.0802612	
2078.5	-0.0802612	
2079	-0.0808716	
2079.5	-0.0811768	
2080	-0.0808716	
2080.5	-0.0811768	
2081	-0.0805664	
2081.5	-0.0802612	
2082	-0.0808716	
2082.5	-0.0845337	
2083	-0.0854492	
2083.5	-0.0848389	
2084	-0.0857544	
2084.5	-0.0860596	
2085	-0.0860596	
2085.5	-0.0854492	
2086	-0.0857544	
2086.5	-0.085144	
2087	-0.0860596	
2087.5	-0.0891113	
2088	-0.0906372	
2088.5	-0.090332	
2089	-0.0909424	
2089.5	-0.090332	
2090	-0.0909424	
2090.5	-0.0897217	
2091	-0.090332	
2091.5	-0.0909424	
2092	-0.0912476	
2092.5	-0.0939941	
2093	-0.0949097	
2093.5	-0.09552	
2094	-0.0952148	
2094.5	-0.09552	
2095	-0.0949097	
2095.5	-0.09552	
2096	-0.0961304	
2096.5	-0.0952148	
2097	-0.0964355	
2097.5	-0.0982666	
2098	-0.100098	
2098.5	-0.100403	
2099	-0.100098	
2099.5	-0.100098	
2100	-0.100403	
2100.5	-0.100403	
2101	-0.0997925	
2101.5	-0.0997925	
2102	-0.100708	
2102.5	-0.101013	
2103	-0.103149	
2103.5	-0.104675	
2104	-0.105591	
2104.5	-0.10498	
2105	-0.105286	
2105.5	-0.105286	
2106	-0.105286	
2106.5	-0.10498	
2107	-0.105286	
2107.5	-0.104675	
2108	-0.105286	
2108.5	-0.105286	
2109	-0.108337	
2109.5	-0.110474	
2110	-0.110779	
2110.5	-0.109558	
2111	-0.110168	
2111.5	-0.110474	
2112	-0.109863	
2112.5	-0.110168	
2113	-0.110779	
2113.5	-0.110474	
2114	-0.110779	
2114.5	-0.110168	
2115	-0.11261	
2115.5	-0.115051	
2116	-0.115051	
2116.5	-0.114441	
2117	-0.115051	
2117.5	-0.115051	
2118	-0.115356	
2118.5	-0.115051	
2119	-0.115051	
2119.5	-0.115356	
2120	-0.115662	
2120.5	-0.115662	
2121	-0.115051	
2121.5	-0.118103	
2122	-0.119629	
2122.5	-0.120239	
2123	-0.120239	
2123.5	-0.119629	
2124	-0.119934	
2124.5	-0.119629	
2125	-0.120239	
2125.5	-0.120239	
2126	-0.119629	
2126.5	-0.119629	
2127	-0.119629	
2127.5	-0.120239	
2128	-0.119934	
2128.5	-0.122986	
2129	-0.124207	
2129.5	-0.124817	
2130	-0.125122	
2130.5	-0.124817	
2131	-0.125122	
2131.5	-0.125122	
2132	-0.124817	
2132.5	-0.124512	
2133	-0.124817	
2133.5	-0.125122	
2134	-0.124817	
2134.5	-0.125427	
2135	-0.124207	
2135.5	-0.125122	
2136	-0.127869	
2136.5	-0.129089	
2137	-0.130005	
2137.5	-0.130005	
2138	-0.130005	
2138.5	-0.129395	
2139	-0.129395	
2139.5	-0.1297	
2140	-0.1297	
2140.5	-0.1297	
2141	-0.1297	
2141.5	-0.130005	
2142	-0.129089	
2142.5	-0.129395	
2143	-0.1297	
2143.5	-0.130005	
2144	-0.1297	
2144.5	-0.132141	
2145	-0.134583	
2145.5	-0.135193	
2146	-0.135193	
2146.5	-0.134583	
2147	-0.134888	
2147.5	-0.134583	
2148	-0.134888	
2148.5	-0.135498	
2149	-0.134583	
2149.5	-0.134277	
2150	-0.134583	
2150.5	-0.134583	
2151	-0.134277	
2151.5	-0.134888	
2152	-0.135498	
2152.5	-0.134583	
2153	-0.137024	
2153.5	-0.13916	
2154	-0.139465	
2154.5	-0.139771	
2155	-0.139465	
2155.5	-0.140076	
2156	-0.139771	
2156.5	-0.139465	
2157	-0.139771	
2157.5	-0.139465	
2158	-0.139771	
2158.5	-0.139465	
2159	-0.139771	
2159.5	-0.13916	
2160	-0.139771	
2160.5	-0.139771	
2161	-0.139771	
2161.5	-0.139771	
2162	-0.139771	
2162.5	-0.141296	
2163	-0.143433	
2163.5	-0.144348	
2164	-0.144653	
2164.5	-0.144653	
2165	-0.144043	
2165.5	-0.144043	
2166	-0.144348	
2166.5	-0.144958	
2167	-0.144653	
2167.5	-0.144653	
2168	-0.144348	
2168.5	-0.144653	
2169	-0.144653	
2169.5	-0.144653	
2170	-0.144043	
2170.5	-0.144348	
2171	-0.144653	
2171.5	-0.144653	
2172	-0.144958	
2172.5	-0.144043	
2173	-0.144653	
2173.5	-0.145874	
2174	-0.148926	
2174.5	-0.149841	
2175	-0.149536	
2175.5	-0.149231	
2176	-0.149536	
2176.5	-0.149841	
2177	-0.149231	
2177.5	-0.149841	
2178	-0.150452	
2178.5	-0.150146	
2179	-0.149841	
2179.5	-0.148926	
2180	-0.149231	
2180.5	-0.149536	
2181	-0.149536	
2181.5	-0.149231	
2182	-0.148926	
2182.5	-0.149536	
2183	-0.149536	
2183.5	-0.149536	
2184	-0.149231	
2184.5	-0.149841	
2185	-0.148926	
2185.5	-0.149231	
2186	-0.149841	
2186.5	-0.149536	
2187	-0.149841	
2187.5	-0.150757	
2188	-0.153503	
2188.5	-0.155029	
2189	-0.154724	
2189.5	-0.154114	
2190	-0.154419	
2190.5	-0.155029	
2191	-0.153503	
2191.5	-0.154724	
2192	-0.154114	
2192.5	-0.154724	
2193	-0.154114	
2193.5	-0.154114	
2194	-0.154419	
2194.5	-0.154724	
2195	-0.154419	
2195.5	-0.154419	
2196	-0.153809	
2196.5	-0.154114	
2197	-0.154114	
2197.5	-0.153809	
2198	-0.154419	
2198.5	-0.154724	
2199	-0.154114	
2199.5	-0.155029	
2200	-0.154724	
2200.5	-0.154114	
2201	-0.154114	
2201.5	-0.154114	
2202	-0.154419	
2202.5	-0.154724	
2203	-0.154419	
2203.5	-0.154724	
2204	-0.154114	
2204.5	-0.154114	
2205	-0.154724	
2205.5	-0.154114	
2206	-0.154114	
2206.5	-0.154114	
2207	-0.154114	
2207.5	-0.153809	
2208	-0.153809	
2208.5	-0.150757	
2209	-0.149841	
2209.5	-0.150146	
2210	-0.149231	
2210.5	-0.149231	
2211	-0.148621	
2211.5	-0.150146	
2212	-0.149841	
2212.5	-0.149536	
2213	-0.149536	
2213.5	-0.149231	
2214	-0.149536	
2214.5	-0.149536	
2215	-0.149536	
2215.5	-0.149536	
2216	-0.149841	
2216.5	-0.148926	
2217	-0.147095	
2217.5	-0.144958	
2218	-0.144653	
2218.5	-0.144653	
2219	-0.144653	
2219.5	-0.144348	
2220	-0.144958	
2220.5	-0.144043	
2221	-0.144958	
2221.5	-0.144348	
2222	-0.140991	
2222.5	-0.139465	
2223	-0.139771	
2223.5	-0.140076	
2224	-0.140076	
2224.5	-0.140076	
2225	-0.139771	
2225.5	-0.139465	
2226	-0.136414	
2226.5	-0.135193	
2227	-0.135803	
2227.5	-0.134583	
2228	-0.134888	
2228.5	-0.134277	
2229	-0.131531	
2229.5	-0.130005	
2230	-0.129395	
2230.5	-0.129395	
2231	-0.1297	
2231.5	-0.1297	
2232	-0.127563	
2232.5	-0.125732	
2233	-0.124817	
2233.5	-0.124817	
2234	-0.125427	
2234.5	-0.122375	
2235	-0.120239	
2235.5	-0.12085	
2236	-0.12085	
2236.5	-0.119629	
2237	-0.117188	
2237.5	-0.115356	
2238	-0.115356	
2238.5	-0.114746	
2239	-0.112305	
2239.5	-0.110474	
2240	-0.110474	
2240.5	-0.109863	
2241	-0.108032	
2241.5	-0.10498	
2242	-0.105591	
2242.5	-0.104675	
2243	-0.102539	
2243.5	-0.101013	
2244	-0.100403	
2244.5	-0.100403	
2245	-0.0970459	
2245.5	-0.0967407	
2246	-0.09552	
2246.5	-0.0949097	
2247	-0.0924683	
2247.5	-0.0906372	
2248	-0.0900269	
2248.5	-0.0872803	
2249	-0.0860596	
2249.5	-0.0860596	
2250	-0.0830078	
2250.5	-0.0817871	
2251	-0.0802612	
2251.5	-0.0808716	
2252	-0.0778198	
2252.5	-0.0765991	
2253	-0.0759888	
2253.5	-0.0732422	
2254	-0.0708008	
2254.5	-0.071106	
2255	-0.0686646	
2255.5	-0.0671387	
2256	-0.0662231	
2256.5	-0.0637817	
2257	-0.0619507	
2257.5	-0.0616455	
2258	-0.0582886	
2258.5	-0.0570679	
2259	-0.0570679	
2259.5	-0.0531006	
2260	-0.0518799	
2260.5	-0.0488281	
2261	-0.0466919	
2261.5	-0.0466919	
2262	-0.0439453	
2262.5	-0.0424194	
2263	-0.0418091	
2263.5	-0.0384521	
2264	-0.0369263	
2264.5	-0.0363159	
2265	-0.0341797	
2265.5	-0.0326538	
2266	-0.0296021	
2266.5	-0.0268555	
2267	-0.0268555	
2267.5	-0.0247192	
2268	-0.022583	
2268.5	-0.0222778	
2269	-0.0201416	
2269.5	-0.0170898	
2270	-0.015564	
2270.5	-0.0131226	
2271	-0.0119019	
2271.5	-0.00946045	
2272	-0.00762939	
2272.5	-0.00488281	
2273	-0.00335693	
2273.5	-0.00213623	
2274	0	
2274.5	0.00183105	
2275	0.00305176	
2275.5	0.00488281	
2276	0.00701904	
2276.5	0.010376	
2277	0.012207	
2277.5	0.0128174	
2278	0.0134277	
2278.5	0.0164795	
2279	0.0195313	
2279.5	0.0219727	
2280	0.0219727	
2280.5	0.0241089	
2281	0.0262451	
2281.5	0.0286865	
2282	0.0317383	
2282.5	0.0317383	
2283	0.0341797	
2283.5	0.0360107	
2284	0.0366211	
2284.5	0.0384521	
2285	0.0418091	
2285.5	0.0439453	
2286	0.0460815	
2286.5	0.0463867	
2287	0.0491333	
2287.5	0.0512695	
2288	0.0537109	
2288.5	0.0561523	
2289	0.0567627	
2289.5	0.0585938	
2290	0.0601196	
2290.5	0.06073	
2291	0.0628662	
2291.5	0.0656128	
2292	0.0680542	
2292.5	0.0701904	
2293	0.071106	
2293.5	0.0732422	
2294	0.0753784	
2294.5	0.0756836	
2295	0.078125	
2295.5	0.0799561	
2296	0.0830078	
2296.5	0.0839233	
2297	0.0857544	
2297.5	0.0869751	
2298	0.0894165	
2298.5	0.090332	
2299	0.0915527	
2299.5	0.0946045	
2300	0.0949097	
2300.5	0.0964355	
2301	0.0997925	
2301.5	0.100708	
2302	0.101929	
2302.5	0.104065	
2303	0.10498	
2303.5	0.106812	
2304	0.108643	
2304.5	0.110168	
2305	0.111694	
2305.5	0.114136	
2306	0.114441	
2306.5	0.115967	
2307	0.119324	
2307.5	0.119629	
2308	0.12146	
2308.5	0.123596	
2309	0.124207	
2309.5	0.126038	
2310	0.128784	
2310.5	0.1297	
2311	0.131531	
2311.5	0.132751	
2312	0.134277	
2312.5	0.136108	
2313	0.138855	
2313.5	0.13916	
2314	0.140076	
2314.5	0.140991	
2315	0.143433	
2315.5	0.144653	
2316	0.145264	
2316.5	0.147705	
2317	0.149841	
2317.5	0.149231	
2318	0.150757	
2318.5	0.152588	
2319	0.153809	
2319.5	0.155334	
2320	0.157776	
2320.5	0.159302	
2321	0.159607	
2321.5	0.160522	
2322	0.162964	
2322.5	0.163879	
2323	0.163879	
2323.5	0.1651	
2324	0.168152	
2324.5	0.168457	
2325	0.168762	
2325.5	0.169678	
2326	0.172424	
2326.5	0.17395	
2327	0.174255	
2327.5	0.173645	
2328	0.174866	
2328.5	0.177612	
2329	0.178528	
2329.5	0.178833	
2330	0.179138	
2330.5	0.18219	
2331	0.183716	
2331.5	0.184326	
2332	0.183105	
2332.5	0.184021	
2333	0.187988	
2333.5	0.187988	
2334	0.188599	
2334.5	0.188293	
2335	0.189209	
2335.5	0.192261	
2336	0.193176	
2336.5	0.194397	
2337	0.193481	
2337.5	0.194397	
2338	0.196838	
2338.5	0.197754	
2339	0.198975	
2339.5	0.198669	
2340	0.198059	
2340.5	0.19928	
2341	0.201416	
2341.5	0.202332	
2342	0.203247	
2342.5	0.203857	
2343	0.203552	
2343.5	0.204163	
2344	0.206909	
2344.5	0.20813	
2345	0.20874	
2345.5	0.207825	
2346	0.208435	
2346.5	0.207825	
2347	0.211487	
2347.5	0.212402	
2348	0.212708	
2348.5	0.213318	
2349	0.213623	
2349.5	0.212402	
2350	0.213013	
2350.5	0.21637	
2351	0.217896	
2351.5	0.217896	
2352	0.218201	
2352.5	0.218201	
2353	0.219116	
2353.5	0.217896	
2354	0.218506	
2354.5	0.221252	
2355	0.223083	
2355.5	0.223083	
2356	0.222778	
2356.5	0.222778	
2357	0.223083	
2357.5	0.222778	
2358	0.223083	
2358.5	0.223389	
2359	0.226746	
2359.5	0.227356	
2360	0.227661	
2360.5	0.227966	
2361	0.227966	
2361.5	0.227966	
2362	0.227966	
2362.5	0.227356	
2363	0.227966	
2363.5	0.228271	
2364	0.231323	
2364.5	0.232239	
2365	0.232849	
2365.5	0.232849	
2366	0.232239	
2366.5	0.233154	
2367	0.233459	
2367.5	0.233154	
2368	0.232849	
2368.5	0.232849	
2369	0.232544	
2369.5	0.232544	
2370	0.232544	
2370.5	0.236206	
2371	0.237427	
2371.5	0.237427	
2372	0.237122	
2372.5	0.237122	
2373	0.237427	
2373.5	0.237427	
2374	0.237732	
2374.5	0.237732	
2375	0.237427	
2375.5	0.237732	
2376	0.237732	
2376.5	0.237732	
2377	0.237732	
2377.5	0.237122	
2378	0.237732	
2378.5	0.236816	
2379	0.238037	
2379.5	0.240173	
2380	0.241394	
2380.5	0.241699	
2381	0.24292	
2381.5	0.24231	
2382	0.24231	
2382.5	0.24292	
2383	0.24292	
2383.5	0.242615	
2384	0.24231	
2384.5	0.242004	
2385	0.24231	
2385.5	0.24231	
2386	0.24292	
2386.5	0.24231	
2387	0.242615	
2387.5	0.242004	
2388	0.24231	
2388.5	0.242615	
2389	0.24231	
2389.5	0.242615	
2390	0.24231	
2390.5	0.242615	
2391	0.242615	
2391.5	0.24231	
2392	0.24292	
2392.5	0.241699	
2393	0.242615	
2393.5	0.24231	
2394	0.24231	
2394.5	0.243225	
2395	0.24231	
2395.5	0.24231	
2396	0.242004	
2396.5	0.242004	
2397	0.24292	
2397.5	0.24231	
2398	0.242004	
2398.5	0.24231	
2399	0.24292	
2399.5	0.242615	
2400	0.24231	
2400.5	0.241394	
2401	0.24231	
2401.5	0.242615	
2402	0.242615	
2402.5	0.242004	
2403	0.242004	
2403.5	0.242615	
2404	0.242004	
2404.5	0.24231	
2405	0.24231	
2405.5	0.242615	
2406	0.241699	
2406.5	0.24231	
2407	0.24231	
2407.5	0.24231	
2408	0.24231	
2408.5	0.24231	
2409	0.24231	
2409.5	0.24292	
2410	0.240479	
2410.5	0.238037	
2411	0.237732	
2411.5	0.238037	
2412	0.238342	
2412.5	0.237122	
2413	0.237732	
2413.5	0.238037	
2414	0.237427	
2414.5	0.237122	
2415	0.237732	
2415.5	0.238037	
2416	0.237122	
2416.5	0.237732	
2417	0.237427	
2417.5	0.237427	
2418	0.237732	
2418.5	0.237122	
2419	0.236206	
2419.5	0.233459	
2420	0.233154	
2420.5	0.232544	
2421	0.232544	
2421.5	0.232544	
2422	0.233154	
2422.5	0.232544	
2423	0.232544	
2423.5	0.233154	
2424	0.232544	
2424.5	0.232849	
2425	0.232849	
2425.5	0.231323	
2426	0.228577	
2426.5	0.227966	
2427	0.228271	
2427.5	0.228271	
2428	0.227966	
2428.5	0.228271	
2429	0.227051	
2429.5	0.227966	
2430	0.227966	
2430.5	0.227966	
2431	0.227356	
2431.5	0.227051	
2432	0.224304	
2432.5	0.223083	
2433	0.223083	
2433.5	0.223083	
2434	0.223389	
2434.5	0.223083	
2435	0.223083	
2435.5	0.223083	
2436	0.221252	
2436.5	0.219116	
2437	0.218201	
2437.5	0.217896	
2438	0.217896	
2438.5	0.217896	
2439	0.21759	
2439.5	0.217896	
2440	0.217896	
2440.5	0.217896	
2441	0.21759	
2441.5	0.214233	
2442	0.213318	
2442.5	0.212708	
2443	0.213623	
2443.5	0.213623	
2444	0.213013	
2444.5	0.213318	
2445	0.212708	
2445.5	0.209961	
2446	0.20813	
2446.5	0.20813	
2447	0.20813	
2447.5	0.20874	
2448	0.208435	
2448.5	0.20813	
2449	0.206909	
2449.5	0.205383	
2450	0.203247	
2450.5	0.203247	
2451	0.203247	
2451.5	0.202637	
2452	0.203247	
2452.5	0.203552	
2453	0.202637	
2453.5	0.19989	
2454	0.198975	
2454.5	0.198975	
2455	0.198669	
2455.5	0.198059	
2456	0.198059	
2456.5	0.197449	
2457	0.194702	
2457.5	0.193176	
2458	0.193176	
2458.5	0.193481	
2459	0.194092	
2459.5	0.193787	
2460	0.193481	
2460.5	0.190125	
2461	0.188904	
2461.5	0.188599	
2462	0.188599	
2462.5	0.188599	
2463	0.188599	
2463.5	0.187683	
2464	0.185547	
2464.5	0.184326	
2465	0.184021	
2465.5	0.183411	
2466	0.184326	
2466.5	0.183105	
2467	0.180054	
2467.5	0.179138	
2468	0.178833	
2468.5	0.179138	
2469	0.178528	
2469.5	0.178833	
2470	0.178833	
2470.5	0.175171	
2471	0.173645	
2471.5	0.173645	
2472	0.17334	
2472.5	0.173645	
2473	0.17334	
2473.5	0.170593	
2474	0.168762	
2474.5	0.168762	
2475	0.168762	
2475.5	0.169067	
2476	0.168762	
2476.5	0.168457	
2477	0.166016	
2477.5	0.164185	
2478	0.163574	
2478.5	0.163574	
2479	0.163574	
2479.5	0.163269	
2480	0.161133	
2480.5	0.158997	
2481	0.158997	
2481.5	0.159302	
2482	0.159912	
2482.5	0.158386	
2483	0.157166	
2483.5	0.154724	
2484	0.153809	
2484.5	0.154114	
2485	0.154114	
2485.5	0.154419	
2486	0.154419	
2486.5	0.151367	
2487	0.150146	
2487.5	0.149231	
2488	0.149536	
2488.5	0.149231	
2489	0.149231	
2489.5	0.146484	
2490	0.144348	
2490.5	0.144348	
2491	0.144653	
2491.5	0.144348	
2492	0.143738	
2492.5	0.140991	
2493	0.140381	
2493.5	0.138855	
2494	0.139771	
2494.5	0.13916	
2495	0.139465	
2495.5	0.13916	
2496	0.136719	
2496.5	0.135193	
2497	0.134583	
2497.5	0.134583	
2498	0.134583	
2498.5	0.134583	
2499	0.132141	
2499.5	0.130005	
2500	0.129395	
2500.5	0.129395	
2501	0.130005	
2501.5	0.129395	
2502	0.130005	
2502.5	0.127258	
2503	0.125122	
2503.5	0.124207	
2504	0.124817	
2504.5	0.124817	
2505	0.123901	
2505.5	0.123901	
2506	0.122375	
2506.5	0.120544	
2507	0.119324	
2507.5	0.119324	
2508	0.119629	
2508.5	0.119934	
2509	0.117188	
2509.5	0.115356	
2510	0.115051	
2510.5	0.114746	
2511	0.114746	
2511.5	0.115051	
2512	0.115051	
2512.5	0.11261	
2513	0.110168	
2513.5	0.110474	
2514	0.109558	
2514.5	0.110168	
2515	0.110168	
2515.5	0.110474	
2516	0.107727	
2516.5	0.105286	
2517	0.104675	
2517.5	0.10498	
2518	0.105286	
2518.5	0.10498	
2519	0.105286	
2519.5	0.103149	
2520	0.100708	
2520.5	0.100098	
2521	0.0997925	
2521.5	0.100403	
2522	0.100098	
2522.5	0.100098	
2523	0.0979614	
2523.5	0.0952148	
2524	0.09552	
2524.5	0.0949097	
2525	0.0952148	
2525.5	0.0949097	
2526	0.0952148	
2526.5	0.0930786	
2527	0.0912476	
2527.5	0.090332	
2528	0.0900269	
2528.5	0.0909424	
2529	0.0906372	
2529.5	0.0906372	
2530	0.090332	
2530.5	0.0881958	
2531	0.0863647	
2531.5	0.0854492	
2532	0.085144	
2532.5	0.0857544	
2533	0.0863647	
2533.5	0.0854492	
2534	0.083313	
2534.5	0.0808716	
2535	0.0808716	
2535.5	0.0799561	
2536	0.0805664	
2536.5	0.0805664	
2537	0.0805664	
2537.5	0.0790405	
2538	0.0772095	
2538.5	0.0765991	
2539	0.0765991	
2539.5	0.0759888	
2540	0.0762939	
2540.5	0.0765991	
2541	0.0759888	
2541.5	0.0744629	
2542	0.0726318	
2542.5	0.071106	
2543	0.0714111	
2543.5	0.071106	
2544	0.0714111	
2544.5	0.0714111	
2545	0.0708008	
2545.5	0.0695801	
2546	0.0665283	
2546.5	0.0665283	
2547	0.0665283	
2547.5	0.0665283	
2548	0.0653076	
2548.5	0.0665283	
2549	0.0646973	
2549.5	0.0622559	
2550	0.0616455	
2550.5	0.0610352	
2551	0.0622559	
2551.5	0.0616455	
2552	0.0619507	
2552.5	0.0601196	
2553	0.0579834	
2553.5	0.0564575	
2554	0.0567627	
2554.5	0.0567627	
2555	0.0570679	
2555.5	0.0567627	
2556	0.0567627	
2556.5	0.0549316	
2557	0.0531006	
2557.5	0.0518799	
2558	0.0515747	
2558.5	0.0512695	
2559	0.0512695	
2559.5	0.0515747	
2560	0.0509644	
2560.5	0.0482178	
2561	0.0463867	
2561.5	0.0469971	
2562	0.0469971	
2562.5	0.0469971	
2563	0.0463867	
2563.5	0.0469971	
2564	0.0460815	
2564.5	0.0427246	
2565	0.0421143	
2565.5	0.0418091	
2566	0.0421143	
2566.5	0.0421143	
2567	0.0421143	
2567.5	0.0405884	
2568	0.0378418	
2568.5	0.0372314	
2569	0.0369263	
2569.5	0.0366211	
2570	0.0372314	
2570.5	0.0369263	
2571	0.0357056	
2571.5	0.0335693	
2572	0.0323486	
2572.5	0.0320435	
2573	0.0317383	
2573.5	0.0317383	
2574	0.0326538	
2574.5	0.0314331	
2575	0.0311279	
2575.5	0.0283813	
2576	0.0271606	
2576.5	0.0268555	
2577	0.0271606	
2577.5	0.0268555	
2578	0.0271606	
2578.5	0.0259399	
2579	0.0238037	
2579.5	0.0216675	
2580	0.0222778	
2580.5	0.0219727	
2581	0.022583	
2581.5	0.0216675	
2582	0.020752	
2582.5	0.0177002	
2583	0.0177002	
2583.5	0.0177002	
2584	0.0170898	
2584.5	0.0167847	
2585	0.0177002	
2585.5	0.017395	
2586	0.0164795	
2586.5	0.0134277	
2587	0.0125122	
2587.5	0.0125122	
2588	0.012207	
2588.5	0.0125122	
2589	0.012207	
2589.5	0.0115967	
2590	0.0088501	
2590.5	0.00793457	
2591	0.00762939	
2591.5	0.00762939	
2592	0.00762939	
2592.5	0.00793457	
2593	0.00762939	
2593.5	0.00671387	
2594	0.00396729	
2594.5	0.00274658	
2595	0.00213623	
2595.5	0.00274658	
2596	0.00305176	
2596.5	0.00244141	
2597	0.00244141	
2597.5	-0.000915527	
2598	-0.00213623	
2598.5	-0.00274658	
2599	-0.00213623	
2599.5	-0.00213623	
2600	-0.00274658	
2600.5	-0.00274658	
2601	-0.00274658	
2601.5	-0.00549316	
2602	-0.00701904	
2602.5	-0.00701904	
2603	-0.00732422	
2603.5	-0.00732422	
2604	-0.00701904	
2604.5	-0.00793457	
2605	-0.0106812	
2605.5	-0.0115967	
2606	-0.0128174	
2606.5	-0.0125122	
2607	-0.012207	
2607.5	-0.0125122	
2608	-0.012207	
2608.5	-0.0128174	
2609	-0.015564	
2609.5	-0.0164795	
2610	-0.017395	
2610.5	-0.0164795	
2611	-0.0167847	
2611.5	-0.0170898	
2612	-0.017395	
2612.5	-0.0204468	
2613	-0.0219727	
2613.5	-0.0219727	
2614	-0.0222778	
2614.5	-0.0222778	
2615	-0.0219727	
2615.5	-0.0222778	
2616	-0.0219727	
2616.5	-0.0253296	
2617	-0.0265503	
2617.5	-0.0274658	
2618	-0.0271606	
2618.5	-0.0268555	
2619	-0.0268555	
2619.5	-0.027771	
2620	-0.0302124	
2620.5	-0.0317383	
2621	-0.0317383	
2621.5	-0.0323486	
2622	-0.0317383	
2622.5	-0.0317383	
2623	-0.0311279	
2623.5	-0.0314331	
2624	-0.0344849	
2624.5	-0.0360107	
2625	-0.0369263	
2625.5	-0.0369263	
2626	-0.0366211	
2626.5	-0.0372314	
2627	-0.0363159	
2627.5	-0.0369263	
2628	-0.0390625	
2628.5	-0.0411987	
2629	-0.0415039	
2629.5	-0.0421143	
2630	-0.0411987	
2630.5	-0.0408936	
2631	-0.0421143	
2631.5	-0.0421143	
2632	-0.0439453	
2632.5	-0.0457764	
2633	-0.0460815	
2633.5	-0.0463867	
2634	-0.0466919	
2634.5	-0.0460815	
2635	-0.0457764	
2635.5	-0.0463867	
2636	-0.0494385	
2636.5	-0.0512695	
2637	-0.0518799	
2637.5	-0.0512695	
2638	-0.0509644	
2638.5	-0.0518799	
2639	-0.0509644	
2639.5	-0.0515747	
2640	-0.0540161	
2640.5	-0.0558472	
2641	-0.0558472	
2641.5	-0.0564575	
2642	-0.0564575	
2642.5	-0.0564575	
2643	-0.0561523	
2643.5	-0.0558472	
2644	-0.0588989	
2644.5	-0.0604248	
2645	-0.0613403	
2645.5	-0.0610352	
2646	-0.0604248	
2646.5	-0.0604248	
2647	-0.0613403	
2647.5	-0.0616455	
2648	-0.0634766	
2648.5	-0.0650024	
2649	-0.0668335	
2649.5	-0.0665283	
2650	-0.0665283	
2650.5	-0.0662231	
2651	-0.0662231	
2651.5	-0.065918	
2652	-0.0665283	
2652.5	-0.067749	
2653	-0.0701904	
2653.5	-0.071106	
2654	-0.071106	
2654.5	-0.071106	
2655	-0.0708008	
2655.5	-0.0714111	
2656	-0.0708008	
2656.5	-0.0732422	
2657	-0.0750732	
2657.5	-0.0762939	
2658	-0.0762939	
2658.5	-0.0762939	
2659	-0.0762939	
2659.5	-0.0769043	
2660	-0.0765991	
2660.5	-0.0762939	
2661	-0.078125	
2661.5	-0.0796509	
2662	-0.0811768	
2662.5	-0.0805664	
2663	-0.0802612	
2663.5	-0.0802612	
2664	-0.0811768	
2664.5	-0.0799561	
2665	-0.0802612	
2665.5	-0.0817871	
2666	-0.0854492	
2666.5	-0.085144	
2667	-0.0860596	
2667.5	-0.0857544	
2668	-0.0848389	
2668.5	-0.0854492	
2669	-0.0854492	
2669.5	-0.0854492	
2670	-0.0869751	
2670.5	-0.0897217	
2671	-0.0906372	
2671.5	-0.0900269	
2672	-0.090332	
2672.5	-0.090332	
2673	-0.0906372	
2673.5	-0.0906372	
2674	-0.0900269	
2674.5	-0.0921631	
2675	-0.0946045	
2675.5	-0.09552	
2676	-0.0952148	
2676.5	-0.09552	
2677	-0.0958252	
2677.5	-0.09552	
2678	-0.0958252	
2678.5	-0.09552	
2679	-0.0967407	
2679.5	-0.098877	
2680	-0.0997925	
2680.5	-0.100403	
2681	-0.100708	
2681.5	-0.100403	
2682	-0.0994873	
2682.5	-0.100708	
2683	-0.100708	
2683.5	-0.101624	
2684	-0.104065	
2684.5	-0.104675	
2685	-0.10498	
2685.5	-0.10498	
2686	-0.105591	
2686.5	-0.10498	
2687	-0.10498	
2687.5	-0.105591	
2688	-0.10498	
2688.5	-0.105896	
2689	-0.108643	
2689.5	-0.110474	
2690	-0.110168	
2690.5	-0.110474	
2691	-0.110779	
2691.5	-0.110474	
2692	-0.110168	
2692.5	-0.110474	
2693	-0.111389	
2693.5	-0.114136	
2694	-0.115662	
2694.5	-0.115356	
2695	-0.114746	
2695.5	-0.115356	
2696	-0.115051	
2696.5	-0.115356	
2697	-0.115051	
2697.5	-0.115356	
2698	-0.116577	
2698.5	-0.119324	
2699	-0.119629	
2699.5	-0.119934	
2700	-0.119934	
2700.5	-0.119629	
2701	-0.119934	
2701.5	-0.120544	
2702	-0.119934	
2702.5	-0.119934	
2703	-0.119629	
2703.5	-0.121155	
2704	-0.123291	
2704.5	-0.124207	
2705	-0.124817	
2705.5	-0.125427	
2706	-0.125122	
2706.5	-0.125427	
2707	-0.124817	
2707.5	-0.125427	
2708	-0.125122	
2708.5	-0.125122	
2709	-0.125732	
2709.5	-0.128784	
2710	-0.129089	
2710.5	-0.130615	
2711	-0.1297	
2711.5	-0.130005	
2712	-0.13031	
2712.5	-0.1297	
2713	-0.130005	
2713.5	-0.13031	
2714	-0.130005	
2714.5	-0.130005	
2715	-0.130005	
2715.5	-0.133057	
2716	-0.134583	
2716.5	-0.134888	
2717	-0.134888	
2717.5	-0.134583	
2718	-0.134888	
2718.5	-0.134888	
2719	-0.134583	
2719.5	-0.134583	
2720	-0.134888	
2720.5	-0.134888	
2721	-0.135498	
2721.5	-0.138245	
2722	-0.139465	
2722.5	-0.139771	
2723	-0.140076	
2723.5	-0.140076	
2724	-0.140381	
2724.5	-0.139465	
2725	-0.140076	
2725.5	-0.139771	
2726	-0.139771	
2726.5	-0.139771	
2727	-0.13916	
2727.5	-0.139465	
2728	-0.139465	
2728.5	-0.142822	
2729	-0.144348	
2729.5	-0.144653	
2730	-0.144958	
2730.5	-0.144348	
2731	-0.144348	
2731.5	-0.144653	
2732	-0.144348	
2732.5	-0.144043	
2733	-0.144348	
2733.5	-0.144653	
2734	-0.144348	
2734.5	-0.145264	
2735	-0.145569	
2735.5	-0.147705	
2736	-0.148315	
2736.5	-0.149536	
2737	-0.149536	
2737.5	-0.149231	
2738	-0.149536	
2738.5	-0.149536	
2739	-0.149536	
2739.5	-0.149841	
2740	-0.149231	
2740.5	-0.149536	
2741	-0.149536	
2741.5	-0.149841	
2742	-0.149536	
2742.5	-0.149536	
2743	-0.152588	
2743.5	-0.153809	
2744	-0.153809	
2744.5	-0.154419	
2745	-0.154419	
2745.5	-0.155029	
2746	-0.154724	
2746.5	-0.154114	
2747	-0.154114	
2747.5	-0.154724	
2748	-0.153503	
2748.5	-0.154724	
2749	-0.154114	
2749.5	-0.153809	
2750	-0.154724	
2750.5	-0.157166	
2751	-0.158997	
2751.5	-0.158691	
2752	-0.159607	
2752.5	-0.159302	
2753	-0.159912	
2753.5	-0.159607	
2754	-0.159302	
2754.5	-0.158997	
2755	-0.159607	
2755.5	-0.159302	
2756	-0.159302	
2756.5	-0.158997	
2757	-0.158997	
2757.5	-0.158081	
2758	-0.159302	
2758.5	-0.161743	
2759	-0.163574	
2759.5	-0.163879	
2760	-0.164185	
2760.5	-0.164185	
2761	-0.16449	
2761.5	-0.16449	
2762	-0.164185	
2762.5	-0.163879	
2763	-0.16449	
2763.5	-0.16449	
2764	-0.164185	
2764.5	-0.164185	
2765	-0.164185	
2765.5	-0.164185	
2766	-0.164185	
2766.5	-0.166626	
2767	-0.168762	
2767.5	-0.169373	
2768	-0.168762	
2768.5	-0.169067	
2769	-0.169067	
2769.5	-0.168457	
2770	-0.169678	
2770.5	-0.169373	
2771	-0.168457	
2771.5	-0.169373	
2772	-0.169678	
2772.5	-0.169678	
2773	-0.169373	
2773.5	-0.169067	
2774	-0.169373	
2774.5	-0.168762	
2775	-0.170898	
2775.5	-0.173645	
2776	-0.174866	
2776.5	-0.174561	
2777	-0.174255	
2777.5	-0.174255	
2778	-0.17395	
2778.5	-0.173645	
2779	-0.173645	
2779.5	-0.17334	
2780	-0.174255	
2780.5	-0.173645	
2781	-0.174255	
2781.5	-0.174255	
2782	-0.174866	
2782.5	-0.174255	
2783	-0.174561	
2783.5	-0.17395	
2784	-0.174255	
2784.5	-0.175781	
2785	-0.177917	
2785.5	-0.179138	
2786	-0.178833	
2786.5	-0.179138	
2787	-0.178833	
2787.5	-0.179443	
2788	-0.178833	
2788.5	-0.179443	
2789	-0.178833	
2789.5	-0.178223	
2790	-0.178528	
2790.5	-0.178833	
2791	-0.178223	
2791.5	-0.179443	
2792	-0.178528	
2792.5	-0.178833	
2793	-0.179443	
2793.5	-0.179138	
2794	-0.178833	
2794.5	-0.178833	
2795	-0.18158	
2795.5	-0.183716	
2796	-0.183716	
2796.5	-0.184021	
2797	-0.183716	
2797.5	-0.184326	
2798	-0.183716	
2798.5	-0.184631	
2799	-0.184326	
2799.5	-0.183716	
2800	-0.183716	
2800.5	-0.184021	
2801	-0.183716	
2801.5	-0.184021	
2802	-0.183411	
2802.5	-0.183716	
2803	-0.184326	
2803.5	-0.184326	
2804	-0.183716	
2804.5	-0.184326	
2805	-0.184021	
2805.5	-0.184021	
2806	-0.185242	
2806.5	-0.187683	
2807	-0.188904	
2807.5	-0.188904	
2808	-0.188904	
2808.5	-0.189209	
2809	-0.189819	
2809.5	-0.189209	
2810	-0.189209	
2810.5	-0.189209	
2811	-0.188599	
2811.5	-0.189209	
2812	-0.188904	
2812.5	-0.188599	
2813	-0.188904	
2813.5	-0.189209	
2814	-0.188599	
2814.5	-0.189514	
2815	-0.188904	
2815.5	-0.188599	
2816	-0.188599	
2816.5	-0.188599	
2817	-0.189819	
2817.5	-0.192261	
2818	-0.194092	
2818.5	-0.193176	
2819	-0.194092	
2819.5	-0.193787	
2820	-0.193176	
2820.5	-0.194092	
2821	-0.194092	
2821.5	-0.193481	
2822	-0.193481	
2822.5	-0.193481	
2823	-0.193787	
2823.5	-0.194092	
2824	-0.193481	
2824.5	-0.193481	
2825	-0.194092	
2825.5	-0.193481	
2826	-0.194092	
2826.5	-0.193481	
2827	-0.194092	
2827.5	-0.193176	
2828	-0.195007	
2828.5	-0.197449	
2829	-0.198364	
2829.5	-0.198669	
2830	-0.198364	
2830.5	-0.198669	
2831	-0.198364	
2831.5	-0.198669	
2832	-0.198669	
2832.5	-0.19928	
2833	-0.198669	
2833.5	-0.198364	
2834	-0.198669	
2834.5	-0.198669	
2835	-0.198059	
2835.5	-0.198975	
2836	-0.198364	
2836.5	-0.198669	
2837	-0.198975	
2837.5	-0.198669	
2838	-0.198364	
2838.5	-0.198059	
2839	-0.19928	
2839.5	-0.202332	
2840	-0.203552	
2840.5	-0.203247	
2841	-0.203552	
2841.5	-0.203247	
2842	-0.203857	
2842.5	-0.203552	
2843	-0.203552	
2843.5	-0.203857	
2844	-0.203857	
2844.5	-0.203552	
2845	-0.203552	
2845.5	-0.203552	
2846	-0.204163	
2846.5	-0.203247	
2847	-0.203247	
2847.5	-0.203552	
2848	-0.204163	
2848.5	-0.203552	
2849	-0.203247	
2849.5	-0.203552	
2850	-0.203857	
2850.5	-0.203552	
2851	-0.203857	
2851.5	-0.203552	
2852	-0.207214	
2852.5	-0.208435	
2853	-0.20874	
2853.5	-0.207825	
2854	-0.208435	
2854.5	-0.209045	
2855	-0.20874	
2855.5	-0.208435	
2856	-0.20813	
2856.5	-0.207825	
2857	-0.20874	
2857.5	-0.20813	
2858	-0.208435	
2858.5	-0.208435	
2859	-0.20813	
2859.5	-0.20874	
2860	-0.208435	
2860.5	-0.20874	
2861	-0.20874	
2861.5	-0.208435	
2862	-0.208435	
2862.5	-0.208435	
2863	-0.20874	
2863.5	-0.20813	
2864	-0.20813	
2864.5	-0.208435	
2865	-0.208435	
2865.5	-0.208435	
2866	-0.208435	
2866.5	-0.208435	
2867	-0.208435	
2867.5	-0.211487	
2868	-0.212708	
2868.5	-0.213318	
2869	-0.213013	
2869.5	-0.213013	
2870	-0.213013	
2870.5	-0.213623	
2871	-0.213623	
2871.5	-0.213013	
2872	-0.213318	
2872.5	-0.213318	
2873	-0.213013	
2873.5	-0.213623	
2874	-0.213623	
2874.5	-0.213623	
2875	-0.213013	
2875.5	-0.213013	
2876	-0.213623	
2876.5	-0.213318	
2877	-0.213928	
2877.5	-0.213623	
2878	-0.213623	
2878.5	-0.212708	
2879	-0.213623	
2879.5	-0.213623	
2880	-0.213013	
2880.5	-0.213928	
2881	-0.213928	
2881.5	-0.213318	
2882	-0.213013	
2882.5	-0.213318	
2883	-0.213318	
2883.5	-0.213318	
2884	-0.213013	
2884.5	-0.213623	
2885	-0.213318	
2885.5	-0.213013	
2886	-0.213318	
2886.5	-0.213928	
2887	-0.213013	
2887.5	-0.213318	
2888	-0.213318	
2888.5	-0.213623	
2889	-0.213013	
2889.5	-0.213013	
2890	-0.213623	
2890.5	-0.213318	
2891	-0.212402	
2891.5	-0.213623	
2892	-0.213318	
2892.5	-0.213013	
2893	-0.213318	
2893.5	-0.213013	
2894	-0.213318	
2894.5	-0.213318	
2895	-0.213318	
2895.5	-0.213013	
2896	-0.213013	
2896.5	-0.212708	
2897	-0.212708	
2897.5	-0.213318	
2898	-0.213318	
2898.5	-0.213928	
2899	-0.213013	
2899.5	-0.213318	
2900	-0.211487	
2900.5	-0.209045	
2901	-0.20874	
2901.5	-0.209045	
2902	-0.208435	
2902.5	-0.20813	
2903	-0.208435	
2903.5	-0.20813	
2904	-0.209045	
2904.5	-0.208435	
2905	-0.20813	
2905.5	-0.20813	
2906	-0.208435	
2906.5	-0.208435	
2907	-0.206299	
2907.5	-0.204163	
2908	-0.203247	
2908.5	-0.203857	
2909	-0.203552	
2909.5	-0.204163	
2910	-0.203247	
2910.5	-0.203552	
2911	-0.204468	
2911.5	-0.203552	
2912	-0.202026	
2912.5	-0.199585	
2913	-0.19928	
2913.5	-0.198975	
2914	-0.198364	
2914.5	-0.198669	
2915	-0.198364	
2915.5	-0.196533	
2916	-0.194397	
2916.5	-0.194092	
2917	-0.194092	
2917.5	-0.193481	
2918	-0.194092	
2918.5	-0.19165	
2919	-0.189514	
2919.5	-0.187988	
2920	-0.188293	
2920.5	-0.188293	
2921	-0.188293	
2921.5	-0.187378	
2922	-0.184021	
2922.5	-0.183716	
2923	-0.183716	
2923.5	-0.183716	
2924	-0.18158	
2924.5	-0.179749	
2925	-0.178833	
2925.5	-0.178833	
2926	-0.177612	
2926.5	-0.174866	
2927	-0.174561	
2927.5	-0.17395	
2928	-0.173035	
2928.5	-0.169678	
2929	-0.168762	
2929.5	-0.168762	
2930	-0.167542	
2930.5	-0.1651	
2931	-0.164185	
2931.5	-0.16449	
2932	-0.162964	
2932.5	-0.160217	
2933	-0.158386	
2933.5	-0.157776	
2934	-0.155029	
2934.5	-0.155029	
2935	-0.154419	
2935.5	-0.152893	
2936	-0.151062	
2936.5	-0.149536	
2937	-0.148315	
2937.5	-0.145569	
2938	-0.144653	
2938.5	-0.143433	
2939	-0.140686	
2939.5	-0.139465	
2940	-0.138855	
2940.5	-0.136719	
2941	-0.134583	
2941.5	-0.133362	
2942	-0.131226	
2942.5	-0.130005	
2943	-0.128479	
2943.5	-0.126038	
2944	-0.125732	
2944.5	-0.123596	
2945	-0.120544	
2945.5	-0.118713	
2946	-0.116272	
2946.5	-0.115051	
2947	-0.113525	
2947.5	-0.111084	
2948	-0.109863	
2948.5	-0.108948	
2949	-0.105896	
2949.5	-0.10437	
2950	-0.101624	
2950.5	-0.100708	
2951	-0.0997925	
2951.5	-0.0967407	
2952	-0.0939941	
2952.5	-0.0918579	
2953	-0.0900269	
2953.5	-0.0872803	
2954	-0.0860596	
2954.5	-0.0845337	
2955	-0.0817871	
2955.5	-0.0796509	
2956	-0.0769043	
2956.5	-0.0753784	
2957	-0.0723267	
2957.5	-0.0714111	
2958	-0.0701904	
2958.5	-0.0674438	
2959	-0.065918	
2959.5	-0.062561	
2960	-0.0610352	
2960.5	-0.0579834	
2961	-0.0561523	
2961.5	-0.0558472	
2962	-0.0524902	
2962.5	-0.0506592	
2963	-0.0476074	
2963.5	-0.0460815	
2964	-0.0427246	
2964.5	-0.0415039	
2965	-0.0378418	
2965.5	-0.0357056	
2966	-0.0332642	
2966.5	-0.0317383	
2967	-0.0317383	
2967.5	-0.0280762	
2968	-0.0265503	
2968.5	-0.0234985	
2969	-0.0213623	
2969.5	-0.0186157	
2970	-0.0170898	
2970.5	-0.0134277	
2971	-0.0125122	
2971.5	-0.00854492	
2972	-0.00732422	
2972.5	-0.00610352	
2973	-0.00396729	
2973.5	-0.00244141	
2974	0.000915527	
2974.5	0.00335693	
2975	0.00549316	
2975.5	0.00823975	
2976	0.0109863	
2976.5	0.0115967	
2977	0.0152588	
2977.5	0.0170898	
2978	0.020752	
2978.5	0.0216675	
2979	0.0219727	
2979.5	0.0256348	
2980	0.0271606	
2980.5	0.0305176	
2981	0.0320435	
2981.5	0.0350952	
2982	0.0366211	
2982.5	0.0405884	
2983	0.0415039	
2983.5	0.0418091	
2984	0.045166	
2984.5	0.0466919	
2985	0.0497437	
2985.5	0.0518799	
2986	0.0549316	
2986.5	0.0561523	
2987	0.0601196	
2987.5	0.0613403	
2988	0.0619507	
2988.5	0.0646973	
2989	0.0665283	
2989.5	0.0689697	
2990	0.0714111	
2990.5	0.0741577	
2991	0.0756836	
2991.5	0.0762939	
2992	0.0790405	
2992.5	0.0802612	
2993	0.0842285	
2993.5	0.085144	
2994	0.0854492	
2994.5	0.0878906	
2995	0.090332	
2995.5	0.0933838	
2996	0.0949097	
2996.5	0.0952148	
2997	0.098877	
2997.5	0.0997925	
2998	0.10376	
2998.5	0.10437	
2999	0.10437	
2999.5	0.107727	
3000	0.109253	
3000.5	0.110168	
3001	0.11261	
3001.5	0.114746	
3002	0.117798	
3002.5	0.118713	
3003	0.119629	
3003.5	0.122375	
3004	0.124512	
3004.5	0.124817	
3005	0.127258	
3005.5	0.129089	
3006	0.129395	
3006.5	0.132446	
3007	0.133972	
3007.5	0.134277	
3008	0.137329	
3008.5	0.13855	
3009	0.13916	
3009.5	0.141602	
3010	0.143127	
3010.5	0.144348	
3011	0.147095	
3011.5	0.148621	
3012	0.149536	
3012.5	0.151978	
3013	0.153809	
3013.5	0.153809	
3014	0.15625	
3014.5	0.158691	
3015	0.158997	
3015.5	0.161438	
3016	0.163879	
3016.5	0.163574	
3017	0.163879	
3017.5	0.166321	
3018	0.167542	
3018.5	0.168762	
3019	0.170898	
3019.5	0.173645	
3020	0.17395	
3020.5	0.17395	
3021	0.176697	
3021.5	0.178528	
3022	0.178528	
3022.5	0.178833	
3023	0.180969	
3023.5	0.183105	
3024	0.184021	
3024.5	0.183716	
3025	0.186157	
3025.5	0.187683	
3026	0.188293	
3026.5	0.188599	
3027	0.19043	
3027.5	0.193176	
3028	0.192871	
3028.5	0.193176	
3029	0.196228	
3029.5	0.197754	
3030	0.198059	
3030.5	0.198669	
3031	0.198364	
3031.5	0.2005	
3032	0.202332	
3032.5	0.202637	
3033	0.202942	
3033.5	0.205078	
3034	0.207825	
3034.5	0.20874	
3035	0.208435	
3035.5	0.209351	
3036	0.207825	
3036.5	0.210571	
3037	0.213013	
3037.5	0.213623	
3038	0.213013	
3038.5	0.213318	
3039	0.214844	
3039.5	0.21759	
3040	0.217896	
3040.5	0.21759	
3041	0.218506	
3041.5	0.218201	
3042	0.220032	
3042.5	0.221863	
3043	0.223083	
3043.5	0.223694	
3044	0.222778	
3044.5	0.223083	
3045	0.22522	
3045.5	0.227356	
3046	0.227661	
3046.5	0.227356	
3047	0.227661	
3047.5	0.227661	
3048	0.227356	
3048.5	0.230103	
3049	0.232544	
3049.5	0.232239	
3050	0.232849	
3050.5	0.233154	
3051	0.233154	
3051.5	0.232239	
3052	0.232849	
3052.5	0.234375	
3053	0.236511	
3053.5	0.237427	
3054	0.237732	
3054.5	0.237427	
3055	0.237732	
3055.5	0.236816	
3056	0.237732	
3056.5	0.238647	
3057	0.241089	
3057.5	0.24231	
3058	0.242615	
3058.5	0.242615	
3059	0.24292	
3059.5	0.24292	
3060	0.24231	
3060.5	0.24231	
3061	0.244141	
3061.5	0.246277	
3062	0.247192	
3062.5	0.247192	
3063	0.246887	
3063.5	0.247498	
3064	0.248108	
3064.5	0.246887	
3065	0.247192	
3065.5	0.247192	
3066	0.246887	
3066.5	0.249023	
3067	0.251465	
3067.5	0.251465	
3068	0.25238	
3068.5	0.25238	
3069	0.252075	
3069.5	0.252991	
3070	0.252991	
3070.5	0.252075	
3071	0.25238	
3071.5	0.251465	
3072	0.252686	
3072.5	0.252075	
3073	0.252991	
3073.5	0.256348	
3074	0.256348	
3074.5	0.257568	
3075	0.257263	
3075.5	0.257568	
3076	0.257568	
3076.5	0.257568	
3077	0.257263	
3077.5	0.257263	
3078	0.256958	
3078.5	0.257874	
3079	0.256653	
3079.5	0.257874	
3080	0.256958	
3080.5	0.257568	
3081	0.257263	
3081.5	0.257874	
3082	0.26123	
3082.5	0.262451	
3083	0.262451	
3083.5	0.262146	
3084	0.262451	
3084.5	0.262451	
3085	0.263062	
3085.5	0.262451	
3086	0.262146	
3086.5	0.262146	
3087	0.261536	
3087.5	0.262451	
3088	0.262146	
3088.5	0.262146	
3089	0.260925	
3089.5	0.261841	
3090	0.261841	
3090.5	0.262146	
3091	0.262146	
3091.5	0.262146	
3092	0.262451	
3092.5	0.261841	
3093	0.262451	
3093.5	0.262451	
3094	0.262451	
3094.5	0.262756	
3095	0.261841	
3095.5	0.262146	
3096	0.262146	
3096.5	0.262756	
3097	0.262451	
3097.5	0.265808	
3098	0.266724	
3098.5	0.267334	
3099	0.267334	
3099.5	0.266418	
3100	0.267334	
3100.5	0.267334	
3101	0.267029	
3101.5	0.267029	
3102	0.267639	
3102.5	0.267029	
3103	0.266418	
3103.5	0.266724	
3104	0.266724	
3104.5	0.266724	
3105	0.263672	
3105.5	0.262451	
3106	0.262146	
3106.5	0.262146	
3107	0.261536	
3107.5	0.261841	
3108	0.262146	
3108.5	0.262451	
3109	0.262451	
3109.5	0.261841	
3110	0.261841	
3110.5	0.262146	
3111	0.261841	
3111.5	0.262146	
3112	0.261536	
3112.5	0.262756	
3113	0.262451	
3113.5	0.261841	
3114	0.262146	
3114.5	0.261841	
3115	0.261841	
3115.5	0.262451	
3116	0.262451	
3116.5	0.262451	
3117	0.261536	
3117.5	0.261841	
3118	0.262146	
3118.5	0.262756	
3119	0.259094	
3119.5	0.257874	
3120	0.257263	
3120.5	0.257263	
3121	0.256958	
3121.5	0.256958	
3122	0.257263	
3122.5	0.256653	
3123	0.257874	
3123.5	0.256958	
3124	0.257263	
3124.5	0.257263	
3125	0.256958	
3125.5	0.256958	
3126	0.254517	
3126.5	0.253296	
3127	0.252075	
3127.5	0.252991	
3128	0.25238	
3128.5	0.25238	
3129	0.25238	
3129.5	0.25238	
3130	0.252075	
3130.5	0.252686	
3131	0.249939	
3131.5	0.247803	
3132	0.246887	
3132.5	0.247803	
3133	0.246887	
3133.5	0.246887	
3134	0.247498	
3134.5	0.246887	
3135	0.246887	
3135.5	0.245361	
3136	0.24292	
3136.5	0.242615	
3137	0.242004	
3137.5	0.242004	
3138	0.242004	
3138.5	0.242004	
3139	0.242004	
3139.5	0.239868	
3140	0.238037	
3140.5	0.237427	
3141	0.237427	
3141.5	0.236816	
3142	0.237732	
3142.5	0.237427	
3143	0.237427	
3143.5	0.235291	
3144	0.233765	
3144.5	0.232849	
3145	0.232239	
3145.5	0.232544	
3146	0.232849	
3146.5	0.232544	
3147	0.230408	
3147.5	0.229797	
3148	0.227966	
3148.5	0.228577	
3149	0.227966	
3149.5	0.227966	
3150	0.225525	
3150.5	0.223694	
3151	0.222473	
3151.5	0.223389	
3152	0.222168	
3152.5	0.223694	
3153	0.222778	
3153.5	0.221252	
3154	0.218506	
3154.5	0.218201	
3155	0.218201	
3155.5	0.21759	
3156	0.218201	
3156.5	0.216064	
3157	0.213928	
3157.5	0.213318	
3158	0.213013	
3158.5	0.213318	
3159	0.213623	
3159.5	0.212097	
3160	0.209351	
3160.5	0.208435	
3161	0.20813	
3161.5	0.208435	
3162	0.207825	
3162.5	0.206909	
3163	0.203552	
3163.5	0.203857	
3164	0.203552	
3164.5	0.203247	
3165	0.203247	
3165.5	0.201721	
3166	0.199585	
3166.5	0.198975	
3167	0.198669	
3167.5	0.198975	
3168	0.196838	
3168.5	0.194397	
3169	0.193787	
3169.5	0.194397	
3170	0.193481	
3170.5	0.193787	
3171	0.191956	
3171.5	0.189514	
3172	0.189209	
3172.5	0.188599	
3173	0.188599	
3173.5	0.188293	
3174	0.187073	
3174.5	0.184326	
3175	0.184021	
3175.5	0.184021	
3176	0.183716	
3176.5	0.181885	
3177	0.179443	
3177.5	0.179138	
3178	0.178223	
3178.5	0.178528	
3179	0.178833	
3179.5	0.177612	
3180	0.174561	
3180.5	0.17395	
3181	0.17334	
3181.5	0.174255	
3182	0.171814	
3182.5	0.169373	
3183	0.168457	
3183.5	0.169373	
3184	0.169067	
3184.5	0.169373	
3185	0.168457	
3185.5	0.16449	
3186	0.164185	
3186.5	0.163879	
3187	0.164185	
3187.5	0.162048	
3188	0.160522	
3188.5	0.158997	
3189	0.158997	
3189.5	0.158997	
3190	0.159607	
3190.5	0.157776	
3191	0.15564	
3191.5	0.154419	
3192	0.154419	
3192.5	0.154419	
3193	0.154419	
3193.5	0.152893	
3194	0.150146	
3194.5	0.149841	
3195	0.149536	
3195.5	0.149536	
3196	0.148315	
3196.5	0.145569	
3197	0.144653	
3197.5	0.144653	
3198	0.144043	
3198.5	0.144348	
3199	0.142822	
3199.5	0.140686	
3200	0.13916	
3200.5	0.139465	
3201	0.13916	
3201.5	0.139771	
3202	0.137939	
3202.5	0.136108	
3203	0.134277	
3203.5	0.134583	
3204	0.134583	
3204.5	0.134277	
3205	0.133972	
3205.5	0.130615	
3206	0.1297	
3206.5	0.1297	
3207	0.130005	
3207.5	0.130005	
3208	0.129089	
3208.5	0.126038	
3209	0.125122	
3209.5	0.124207	
3210	0.124817	
3210.5	0.124512	
3211	0.123901	
3211.5	0.120544	
3212	0.119324	
3212.5	0.119324	
3213	0.119324	
3213.5	0.119629	
3214	0.118713	
3214.5	0.116272	
3215	0.115051	
3215.5	0.114746	
3216	0.114136	
3216.5	0.115051	
3217	0.115051	
3217.5	0.113831	
3218	0.111389	
3218.5	0.109863	
3219	0.109558	
3219.5	0.109558	
3220	0.109863	
3220.5	0.109558	
3221	0.109863	
3221.5	0.106506	
3222	0.10498	
3222.5	0.105286	
3223	0.104675	
3223.5	0.104675	
3224	0.104675	
3224.5	0.10437	
3225	0.101318	
3225.5	0.101624	
3226	0.100098	
3226.5	0.100098	
3227	0.100098	
3227.5	0.100098	
3228	0.0997925	
3228.5	0.0973511	
3229	0.09552	
3229.5	0.09552	
3230	0.09552	
3230.5	0.0949097	
3231	0.09552	
3231.5	0.09552	
3232	0.0952148	
3232.5	0.0912476	
3233	0.090332	
3233.5	0.090332	
3234	0.090332	
3234.5	0.0906372	
3235	0.0909424	
3235.5	0.090332	
3236	0.0894165	
3236.5	0.0872803	
3237	0.0854492	
3237.5	0.0860596	
3238	0.085144	
3238.5	0.085144	
3239	0.085144	
3239.5	0.085144	
3240	0.085144	
3240.5	0.0827026	
3241	0.0802612	
3241.5	0.0808716	
3242	0.0808716	
3242.5	0.0799561	
3243	0.0802612	
3243.5	0.0805664	
3244	0.0805664	
3244.5	0.0799561	
3245	0.0787354	
3245.5	0.0769043	
3246	0.0756836	
3246.5	0.0759888	
3247	0.0759888	
3247.5	0.0765991	
3248	0.0762939	
3248.5	0.0762939	
3249	0.0753784	
3249.5	0.0759888	
3250	0.0735474	
3250.5	0.0720215	
3251	0.0717163	
3251.5	0.071106	
3252	0.0717163	
3252.5	0.0720215	
3253	0.071106	
3253.5	0.0708008	
3254	0.0720215	
3254.5	0.071106	
3255	0.0714111	
3255.5	0.0683594	
3256	0.0668335	
3256.5	0.0665283	
3257	0.0662231	
3257.5	0.065918	
3258	0.0665283	
3258.5	0.0665283	
3259	0.0662231	
3259.5	0.0662231	
3260	0.0665283	
3260.5	0.065918	
3261	0.0662231	
3261.5	0.0634766	
3262	0.0613403	
3262.5	0.0613403	
3263	0.0616455	
3263.5	0.0613403	
3264	0.0613403	
3264.5	0.0613403	
3265	0.0613403	
3265.5	0.0616455	
3266	0.0619507	
3266.5	0.0616455	
3267	0.0613403	
3267.5	0.0616455	
3268	0.0592041	
3268.5	0.057373	
3269	0.0570679	
3269.5	0.0561523	
3270	0.0567627	
3270.5	0.0567627	
3271	0.0567627	
3271.5	0.057373	
3272	0.0564575	
3272.5	0.0570679	
3273	0.0564575	
3273.5	0.0567627	
3274	0.0561523	
3274.5	0.0564575	
3275	0.0564575	
3275.5	0.0549316	
3276	0.0521851	
3276.5	0.0518799	
3277	0.0512695	
3277.5	0.0518799	
3278	0.0521851	
3278.5	0.0515747	
3279	0.0509644	
3279.5	0.0518799	
3280	0.0515747	
3280.5	0.0524902	
3281	0.0518799	
3281.5	0.0521851	
3282	0.0518799	
3282.5	0.0494385	
3283	0.0473022	
3283.5	0.0469971	
3284	0.0466919	
3284.5	0.0469971	
3285	0.0466919	
3285.5	0.0469971	
3286	0.0466919	
3286.5	0.0473022	
3287	0.0463867	
3287.5	0.0473022	
3288	0.0469971	
3288.5	0.0466919	
3289	0.0469971	
3289.5	0.045166	
3290	0.0427246	
3290.5	0.0424194	
3291	0.0418091	
3291.5	0.0424194	
3292	0.0418091	
3292.5	0.0418091	
3293	0.0408936	
3293.5	0.0418091	
3294	0.0411987	
3294.5	0.0421143	
3295	0.0411987	
3295.5	0.0418091	
3296	0.0396729	
3296.5	0.0375366	
3297	0.0366211	
3297.5	0.0366211	
3298	0.0369263	
3298.5	0.0366211	
3299	0.0369263	
3299.5	0.0372314	
3300	0.0369263	
3300.5	0.0372314	
3301	0.0366211	
3301.5	0.0354004	
3302	0.0326538	
3302.5	0.0317383	
3303	0.0314331	
3303.5	0.0320435	
3304	0.0317383	
3304.5	0.0317383	
3305	0.0326538	
3305.5	0.0317383	
3306	0.0320435	
3306.5	0.0323486	
3307	0.0308228	
3307.5	0.0283813	
3308	0.0271606	
3308.5	0.0268555	
3309	0.0274658	
3309.5	0.0271606	
3310	0.0271606	
3310.5	0.0268555	
3311	0.0271606	
3311.5	0.0271606	
3312	0.0256348	
3312.5	0.0234985	
3313	0.0219727	
3313.5	0.022583	
3314	0.0219727	
3314.5	0.0219727	
3315	0.0219727	
3315.5	0.0222778	
3316	0.0222778	
3316.5	0.0222778	
3317	0.0210571	
3317.5	0.0180054	
3318	0.017395	
3318.5	0.0170898	
3319	0.0170898	
3319.5	0.017395	
3320	0.017395	
3320.5	0.017395	
3321	0.0167847	
3321.5	0.0161743	
3322	0.0137329	
3322.5	0.0128174	
3323	0.012207	
3323.5	0.0115967	
3324	0.0125122	
3324.5	0.012207	
3325	0.0125122	
3325.5	0.0115967	
3326	0.00823975	
3326.5	0.00762939	
3327	0.00732422	
3327.5	0.00762939	
3328	0.00732422	
3328.5	0.00732422	
3329	0.00701904	
3329.5	0.00671387	
3330	0.00610352	
3330.5	0.00427246	
3331	0.00305176	
3331.5	0.00183105	
3332	0.00305176	
3332.5	0.00274658	
3333	0.00244141	
3333.5	0.00213623	
3334	0.00183105	
3334.5	-0.000915527	
3335	-0.00213623	
3335.5	-0.00213623	
3336	-0.00244141	
3336.5	-0.00213623	
3337	-0.00183105	
3337.5	-0.00183105	
3338	-0.00274658	
3338.5	-0.00579834	
3339	-0.00762939	
3339.5	-0.00701904	
3340	-0.00732422	
3340.5	-0.00732422	
3341	-0.00701904	
3341.5	-0.00732422	
3342	-0.00823975	
3342.5	-0.0109863	
3343	-0.0119019	
3343.5	-0.012207	
3344	-0.012207	
3344.5	-0.012207	
3345	-0.0119019	
3345.5	-0.012207	
3346	-0.0128174	
3346.5	-0.015564	
3347	-0.0164795	
3347.5	-0.017395	
3348	-0.0167847	
3348.5	-0.0170898	
3349	-0.0170898	
3349.5	-0.0177002	
3350	-0.0180054	
3350.5	-0.0210571	
3351	-0.0222778	
3351.5	-0.0222778	
3352	-0.0216675	
3352.5	-0.0219727	
3353	-0.0222778	
3353.5	-0.0219727	
3354	-0.022583	
3354.5	-0.0253296	
3355	-0.0268555	
3355.5	-0.0268555	
3356	-0.0268555	
3356.5	-0.0271606	
3357	-0.0265503	
3357.5	-0.0262451	
3358	-0.0271606	
3358.5	-0.0302124	
3359	-0.0314331	
3359.5	-0.0320435	
3360	-0.0320435	
3360.5	-0.0326538	
3361	-0.0311279	
3361.5	-0.0317383	
3362	-0.0311279	
3362.5	-0.0344849	
3363	-0.0357056	
3363.5	-0.0369263	
3364	-0.0369263	
3364.5	-0.0372314	
3365	-0.0369263	
3365.5	-0.0375366	
3366	-0.0372314	
3366.5	-0.0369263	
3367	-0.0390625	
3367.5	-0.0411987	
3368	-0.0411987	
3368.5	-0.0415039	
3369	-0.0418091	
3369.5	-0.0415039	
3370	-0.0415039	
3370.5	-0.0415039	
3371	-0.0415039	
3371.5	-0.0439453	
3372	-0.0466919	
3372.5	-0.0457764	
3373	-0.0466919	
3373.5	-0.0469971	
3374	-0.0466919	
3374.5	-0.0460815	
3375	-0.0457764	
3375.5	-0.0463867	
3376	-0.0497437	
3376.5	-0.0506592	
3377	-0.0512695	
3377.5	-0.0512695	
3378	-0.0509644	
3378.5	-0.0512695	
3379	-0.0515747	
3379.5	-0.0509644	
3380	-0.0515747	
3380.5	-0.0543213	
3381	-0.0561523	
3381.5	-0.0564575	
3382	-0.0564575	
3382.5	-0.0567627	
3383	-0.0570679	
3383.5	-0.0564575	
3384	-0.0564575	
3384.5	-0.0564575	
3385	-0.0567627	
3385.5	-0.0582886	
3386	-0.0601196	
3386.5	-0.0619507	
3387	-0.0613403	
3387.5	-0.0604248	
3388	-0.0610352	
3388.5	-0.0613403	
3389	-0.0616455	
3389.5	-0.0616455	
3390	-0.06073	
3390.5	-0.0616455	
3391	-0.0643921	
3391.5	-0.0653076	
3392	-0.0665283	
3392.5	-0.0662231	
3393	-0.065918	
3393.5	-0.065918	
3394	-0.065918	
3394.5	-0.0665283	
3395	-0.0665283	
3395.5	-0.065918	
3396	-0.0662231	
3396.5	-0.0686646	
3397	-0.0704956	
3397.5	-0.0708008	
3398	-0.071106	
3398.5	-0.0717163	
3399	-0.071106	
3399.5	-0.0714111	
3400	-0.0717163	
3400.5	-0.0704956	
3401	-0.0717163	
3401.5	-0.0717163	
3402	-0.072937	
3402.5	-0.0753784	
3403	-0.0756836	
3403.5	-0.0765991	
3404	-0.0762939	
3404.5	-0.0762939	
3405	-0.0762939	
3405.5	-0.0769043	
3406	-0.0759888	
3406.5	-0.0762939	
3407	-0.0759888	
3407.5	-0.0769043	
3408	-0.0784302	
3408.5	-0.0799561	
3409	-0.0805664	
3409.5	-0.0808716	
3410	-0.0808716	
3410.5	-0.0808716	
3411	-0.0805664	
3411.5	-0.0805664	
3412	-0.0808716	
3412.5	-0.0802612	
3413	-0.0802612	
3413.5	-0.0808716	
3414	-0.0830078	
3414.5	-0.085144	
3415	-0.085144	
3415.5	-0.0857544	
3416	-0.0854492	
3416.5	-0.0854492	
3417	-0.0857544	
3417.5	-0.0854492	
3418	-0.0857544	
3418.5	-0.085144	
3419	-0.0854492	
3419.5	-0.0854492	
3420	-0.0848389	
3420.5	-0.0872803	
3421	-0.0894165	
3421.5	-0.090332	
3422	-0.090332	
3422.5	-0.0909424	
3423	-0.0909424	
3423.5	-0.0909424	
3424	-0.0912476	
3424.5	-0.0909424	
3425	-0.090332	
3425.5	-0.0909424	
3426	-0.0909424	
3426.5	-0.090332	
3427	-0.090332	
3427.5	-0.0906372	
3428	-0.0915527	
3428.5	-0.09552	
3429	-0.0952148	
3429.5	-0.09552	
3430	-0.0952148	
3430.5	-0.09552	
3431	-0.0952148	
3431.5	-0.0952148	
3432	-0.0946045	
3432.5	-0.0958252	
3433	-0.0952148	
3433.5	-0.0958252	
3434	-0.0952148	
3434.5	-0.0952148	
3435	-0.0970459	
3435.5	-0.0997925	
3436	-0.0997925	
3436.5	-0.100098	
3437	-0.100098	
3437.5	-0.101013	
3438	-0.100403	
3438.5	-0.100708	
3439	-0.100403	
3439.5	-0.100403	
3440	-0.100098	
3440.5	-0.100098	
3441	-0.100403	
3441.5	-0.100403	
3442	-0.100098	
3442.5	-0.102234	
3443	-0.10437	
3443.5	-0.105286	
3444	-0.105286	
3444.5	-0.105286	
3445	-0.105591	
3445.5	-0.105896	
3446	-0.10498	
3446.5	-0.104675	
3447	-0.10498	
3447.5	-0.10498	
3448	-0.105591	
3448.5	-0.105591	
3449	-0.10498	
3449.5	-0.10437	
3450	-0.106201	
3450.5	-0.108337	
3451	-0.110474	
3451.5	-0.110474	
3452	-0.110168	
3452.5	-0.110779	
3453	-0.110474	
3453.5	-0.110474	
3454	-0.110168	
3454.5	-0.110168	
3455	-0.110779	
3455.5	-0.110168	
3456	-0.109558	
3456.5	-0.109558	
3457	-0.110168	
3457.5	-0.110779	
3458	-0.113831	
3458.5	-0.115356	
3459	-0.114746	
3459.5	-0.115051	
3460	-0.115051	
3460.5	-0.115662	
3461	-0.115051	
3461.5	-0.114746	
3462	-0.115051	
3462.5	-0.115051	
3463	-0.115356	
3463.5	-0.115356	
3464	-0.115051	
3464.5	-0.114746	
3465	-0.115662	
3465.5	-0.118713	
3466	-0.119934	
3466.5	-0.119934	
3467	-0.119934	
3467.5	-0.119019	
3468	-0.119934	
3468.5	-0.119934	
3469	-0.119934	
3469.5	-0.120239	
3470	-0.120239	
3470.5	-0.119934	
3471	-0.119934	
3471.5	-0.119629	
3472	-0.119629	
3472.5	-0.119629	
3473	-0.119934	
3473.5	-0.120544	
3474	-0.122681	
3474.5	-0.124817	
3475	-0.125122	
3475.5	-0.124817	
3476	-0.124512	
3476.5	-0.125122	
3477	-0.124512	
3477.5	-0.124512	
3478	-0.124512	
3478.5	-0.125122	
3479	-0.124207	
3479.5	-0.125122	
3480	-0.125427	
3480.5	-0.125122	
3481	-0.124817	
3481.5	-0.124817	
3482	-0.124512	
3482.5	-0.124817	
3483	-0.124817	
3483.5	-0.124817	
3484	-0.127869	
3484.5	-0.1297	
3485	-0.1297	
3485.5	-0.1297	
3486	-0.130005	
3486.5	-0.129395	
3487	-0.1297	
3487.5	-0.1297	
3488	-0.129395	
3488.5	-0.129395	
3489	-0.130005	
3489.5	-0.130005	
3490	-0.1297	
3490.5	-0.13031	
3491	-0.1297	
3491.5	-0.13031	
3492	-0.129395	
3492.5	-0.130005	
3493	-0.1297	
3493.5	-0.129395	
3494	-0.130005	
3494.5	-0.1297	
3495	-0.13031	
3495.5	-0.13031	
3496	-0.13031	
3496.5	-0.132446	
3497	-0.134277	
3497.5	-0.134888	
3498	-0.134888	
3498.5	-0.135193	
3499	-0.134888	
3499.5	-0.134583	
3500	-0.134583	
3500.5	-0.134583	
3501	-0.134583	
3501.5	-0.134888	
3502	-0.134888	
3502.5	-0.134888	
3503	-0.134277	
3503.5	-0.135193	
3504	-0.134888	
3504.5	-0.134888	
3505	-0.134888	
3505.5	-0.134888	
3506	-0.134583	
3506.5	-0.134277	
3507	-0.135193	
3507.5	-0.134583	
3508	-0.135193	
3508.5	-0.134277	
3509	-0.135193	
3509.5	-0.134888	
3510	-0.135498	
3510.5	-0.134888	
3511	-0.134583	
3511.5	-0.134888	
3512	-0.135193	
3512.5	-0.134888	
3513	-0.134277	
3513.5	-0.135498	
3514	-0.137634	
3514.5	-0.138855	
3515	-0.140076	
3515.5	-0.139771	
3516	-0.13916	
3516.5	-0.139465	
3517	-0.140076	
3517.5	-0.140076	
3518	-0.139465	
3518.5	-0.140076	
3519	-0.139771	
3519.5	-0.139771	
3520	-0.140381	
3520.5	-0.139771	
3521	-0.13916	
3521.5	-0.139771	
3522	-0.139465	
3522.5	-0.139465	
3523	-0.139465	
3523.5	-0.139771	
3524	-0.140076	
3524.5	-0.139771	
3525	-0.139771	
3525.5	-0.140076	
3526	-0.139771	
3526.5	-0.140381	
3527	-0.139771	
3527.5	-0.13916	
3528	-0.140076	
3528.5	-0.140076	
3529	-0.140076	
3529.5	-0.139771	
3530	-0.139771	
3530.5	-0.139771	
3531	-0.139771	
3531.5	-0.138855	
3532	-0.140076	
3532.5	-0.139771	
3533	-0.13916	
3533.5	-0.138855	
3534	-0.138855	
3534.5	-0.139771	
3535	-0.13916	
3535.5	-0.139771	
3536	-0.139771	
3536.5	-0.140076	
3537	-0.140076	
3537.5	-0.139771	
3538	-0.139771	
3538.5	-0.140076	
3539	-0.139771	
3539.5	-0.139771	
3540	-0.139465	
3540.5	-0.139771	
3541	-0.139771	
3541.5	-0.140076	
3542	-0.141602	
3542.5	-0.144043	
3543	-0.144348	
3543.5	-0.144653	
3544	-0.144958	
3544.5	-0.144348	
3545	-0.144348	
3545.5	-0.144653	
3546	-0.144653	
3546.5	-0.144348	
3547	-0.144653	
3547.5	-0.144958	
3548	-0.144348	
3548.5	-0.145264	
3549	-0.145569	
3549.5	-0.144043	
3550	-0.144958	
3550.5	-0.144653	
3551	-0.144348	
3551.5	-0.143738	
3552	-0.144653	
3552.5	-0.144348	
3553	-0.144653	
3553.5	-0.144653	
3554	-0.144348	
3554.5	-0.144958	
3555	-0.143738	
3555.5	-0.144348	
3556	-0.144653	
3556.5	-0.144348	
3557	-0.144653	
3557.5	-0.144043	
3558	-0.144043	
3558.5	-0.144958	
3559	-0.144653	
3559.5	-0.144653	
3560	-0.144653	
3560.5	-0.144348	
3561	-0.144348	
3561.5	-0.144348	
3562	-0.144958	
3562.5	-0.145264	
3563	-0.143738	
3563.5	-0.144653	
3564	-0.144653	
3564.5	-0.144653	
3565	-0.144348	
3565.5	-0.144348	
3566	-0.144653	
3566.5	-0.145264	
3567	-0.144348	
3567.5	-0.144348	
3568	-0.144958	
3568.5	-0.144958	
3569	-0.144653	
3569.5	-0.144348	
3570	-0.144653	
3570.5	-0.144348	
3571	-0.144653	
3571.5	-0.144653	
3572	-0.144958	
3572.5	-0.144653	
3573	-0.144653	
3573.5	-0.146179	
3574	-0.148315	
3574.5	-0.149841	
3575	-0.149231	
3575.5	-0.149536	
3576	-0.149231	
3576.5	-0.149231	
3577	-0.149536	
3577.5	-0.149231	
3578	-0.149536	
3578.5	-0.149231	
3579	-0.149536	
3579.5	-0.149841	
3580	-0.149231	
3580.5	-0.149841	
3581	-0.149536	
3581.5	-0.150452	
3582	-0.148926	
3582.5	-0.149231	
3583	-0.149231	
3583.5	-0.149231	
3584	-0.149841	
3584.5	-0.149536	
3585	-0.149841	
3585.5	-0.149231	
3586	-0.148926	
3586.5	-0.149231	
3587	-0.148926	
3587.5	-0.149536	
3588	-0.149231	
3588.5	-0.149536	
3589	-0.149231	
3589.5	-0.149841	
3590	-0.148926	
3590.5	-0.148926	
3591	-0.149536	
3591.5	-0.149536	
3592	-0.149536	
3592.5	-0.149536	
3593	-0.149536	
3593.5	-0.149536	
3594	-0.148926	
3594.5	-0.149536	
3595	-0.149231	
3595.5	-0.149841	
3596	-0.149231	
3596.5	-0.150146	
3597	-0.150146	
3597.5	-0.148926	
3598	-0.149231	
3598.5	-0.149841	
3599	-0.149536	
3599.5	-0.149231	
3600	-0.149536	
3600.5	-0.149231	
3601	-0.148621	
3601.5	-0.146179	
3602	-0.144653	
3602.5	-0.144043	
3603	-0.144348	
3603.5	-0.144958	
3604	-0.144653	
3604.5	-0.144958	
3605	-0.144653	
3605.5	-0.144348	
3606	-0.144348	
3606.5	-0.144043	
3607	-0.144653	
3607.5	-0.144653	
3608	-0.144348	
3608.5	-0.144043	
3609	-0.144653	
3609.5	-0.144958	
3610	-0.144653	
3610.5	-0.144043	
3611	-0.144653	
3611.5	-0.144348	
3612	-0.144043	
3612.5	-0.144043	
3613	-0.143738	
3613.5	-0.141296	
3614	-0.139771	
3614.5	-0.139465	
3615	-0.139465	
3615.5	-0.139465	
3616	-0.140076	
3616.5	-0.139465	
3617	-0.140381	
3617.5	-0.139465	
3618	-0.139771	
3618.5	-0.13916	
3619	-0.139771	
3619.5	-0.137024	
3620	-0.135193	
3620.5	-0.135193	
3621	-0.134277	
3621.5	-0.134277	
3622	-0.135498	
3622.5	-0.135193	
3623	-0.134583	
3623.5	-0.133972	
3624	-0.132446	
3624.5	-0.130615	
